May 29, 2018   16:08:58
Open Circuit Potential - Time
File: ocp 3- 1mm 4- 10mm
Data Source:  Experiment
Instrument Model:  CHI614B
Header: 
Note: 

Run Time (sec) = 180

Time/sec, Potential/V

1.000e-1	1.360e-1
2.000e-1	1.360e-1
3.000e-1	1.359e-1
4.000e-1	1.358e-1
5.000e-1	1.358e-1
6.000e-1	1.358e-1
7.000e-1	1.357e-1
8.000e-1	1.357e-1
9.000e-1	1.357e-1
1.000e+0	1.357e-1
1.100e+0	1.356e-1
1.200e+0	1.356e-1
1.300e+0	1.355e-1
1.400e+0	1.355e-1
1.500e+0	1.355e-1
1.600e+0	1.354e-1
1.700e+0	1.354e-1
1.800e+0	1.354e-1
1.900e+0	1.353e-1
2.000e+0	1.353e-1
2.100e+0	1.353e-1
2.200e+0	1.353e-1
2.300e+0	1.352e-1
2.400e+0	1.352e-1
2.500e+0	1.352e-1
2.600e+0	1.351e-1
2.700e+0	1.351e-1
2.800e+0	1.351e-1
2.900e+0	1.350e-1
3.000e+0	1.350e-1
3.100e+0	1.350e-1
3.200e+0	1.350e-1
3.300e+0	1.349e-1
3.400e+0	1.349e-1
3.500e+0	1.349e-1
3.600e+0	1.349e-1
3.700e+0	1.348e-1
3.800e+0	1.348e-1
3.900e+0	1.348e-1
4.000e+0	1.348e-1
4.100e+0	1.347e-1
4.200e+0	1.348e-1
4.300e+0	1.347e-1
4.400e+0	1.347e-1
4.500e+0	1.346e-1
4.600e+0	1.347e-1
4.700e+0	1.346e-1
4.800e+0	1.346e-1
4.900e+0	1.346e-1
5.000e+0	1.346e-1
5.100e+0	1.345e-1
5.200e+0	1.345e-1
5.300e+0	1.345e-1
5.400e+0	1.345e-1
5.500e+0	1.345e-1
5.600e+0	1.344e-1
5.700e+0	1.344e-1
5.800e+0	1.344e-1
5.900e+0	1.344e-1
6.000e+0	1.343e-1
6.100e+0	1.343e-1
6.200e+0	1.343e-1
6.300e+0	1.343e-1
6.400e+0	1.343e-1
6.500e+0	1.343e-1
6.600e+0	1.342e-1
6.700e+0	1.342e-1
6.800e+0	1.342e-1
6.900e+0	1.342e-1
7.000e+0	1.342e-1
7.100e+0	1.341e-1
7.200e+0	1.341e-1
7.300e+0	1.341e-1
7.400e+0	1.341e-1
7.500e+0	1.341e-1
7.600e+0	1.341e-1
7.700e+0	1.341e-1
7.800e+0	1.341e-1
7.900e+0	1.340e-1
8.000e+0	1.340e-1
8.100e+0	1.340e-1
8.200e+0	1.340e-1
8.300e+0	1.340e-1
8.400e+0	1.339e-1
8.500e+0	1.339e-1
8.600e+0	1.339e-1
8.700e+0	1.339e-1
8.800e+0	1.339e-1
8.900e+0	1.339e-1
9.000e+0	1.339e-1
9.100e+0	1.339e-1
9.200e+0	1.338e-1
9.300e+0	1.338e-1
9.400e+0	1.338e-1
9.500e+0	1.338e-1
9.600e+0	1.338e-1
9.700e+0	1.338e-1
9.800e+0	1.338e-1
9.900e+0	1.338e-1
1.000e+1	1.338e-1
1.010e+1	1.337e-1
1.020e+1	1.337e-1
1.030e+1	1.337e-1
1.040e+1	1.337e-1
1.050e+1	1.337e-1
1.060e+1	1.337e-1
1.070e+1	1.336e-1
1.080e+1	1.337e-1
1.090e+1	1.336e-1
1.100e+1	1.336e-1
1.110e+1	1.336e-1
1.120e+1	1.336e-1
1.130e+1	1.336e-1
1.140e+1	1.336e-1
1.150e+1	1.336e-1
1.160e+1	1.336e-1
1.170e+1	1.336e-1
1.180e+1	1.336e-1
1.190e+1	1.335e-1
1.200e+1	1.336e-1
1.210e+1	1.335e-1
1.220e+1	1.335e-1
1.230e+1	1.335e-1
1.240e+1	1.335e-1
1.250e+1	1.335e-1
1.260e+1	1.335e-1
1.270e+1	1.335e-1
1.280e+1	1.335e-1
1.290e+1	1.334e-1
1.300e+1	1.334e-1
1.310e+1	1.334e-1
1.320e+1	1.334e-1
1.330e+1	1.334e-1
1.340e+1	1.334e-1
1.350e+1	1.334e-1
1.360e+1	1.334e-1
1.370e+1	1.334e-1
1.380e+1	1.333e-1
1.390e+1	1.334e-1
1.400e+1	1.333e-1
1.410e+1	1.334e-1
1.420e+1	1.333e-1
1.430e+1	1.333e-1
1.440e+1	1.333e-1
1.450e+1	1.333e-1
1.460e+1	1.333e-1
1.470e+1	1.333e-1
1.480e+1	1.333e-1
1.490e+1	1.333e-1
1.500e+1	1.332e-1
1.510e+1	1.332e-1
1.520e+1	1.332e-1
1.530e+1	1.332e-1
1.540e+1	1.332e-1
1.550e+1	1.332e-1
1.560e+1	1.332e-1
1.570e+1	1.332e-1
1.580e+1	1.332e-1
1.590e+1	1.332e-1
1.600e+1	1.332e-1
1.610e+1	1.332e-1
1.620e+1	1.332e-1
1.630e+1	1.332e-1
1.640e+1	1.332e-1
1.650e+1	1.332e-1
1.660e+1	1.331e-1
1.670e+1	1.331e-1
1.680e+1	1.331e-1
1.690e+1	1.331e-1
1.700e+1	1.331e-1
1.710e+1	1.331e-1
1.720e+1	1.331e-1
1.730e+1	1.331e-1
1.740e+1	1.331e-1
1.750e+1	1.331e-1
1.760e+1	1.331e-1
1.770e+1	1.331e-1
1.780e+1	1.331e-1
1.790e+1	1.331e-1
1.800e+1	1.330e-1
1.810e+1	1.330e-1
1.820e+1	1.330e-1
1.830e+1	1.330e-1
1.840e+1	1.330e-1
1.850e+1	1.330e-1
1.860e+1	1.330e-1
1.870e+1	1.330e-1
1.880e+1	1.330e-1
1.890e+1	1.330e-1
1.900e+1	1.330e-1
1.910e+1	1.329e-1
1.920e+1	1.330e-1
1.930e+1	1.330e-1
1.940e+1	1.330e-1
1.950e+1	1.329e-1
1.960e+1	1.329e-1
1.970e+1	1.329e-1
1.980e+1	1.329e-1
1.990e+1	1.329e-1
2.000e+1	1.329e-1
2.010e+1	1.329e-1
2.020e+1	1.329e-1
2.030e+1	1.329e-1
2.040e+1	1.329e-1
2.050e+1	1.329e-1
2.060e+1	1.329e-1
2.070e+1	1.329e-1
2.080e+1	1.328e-1
2.090e+1	1.329e-1
2.100e+1	1.329e-1
2.110e+1	1.329e-1
2.120e+1	1.329e-1
2.130e+1	1.328e-1
2.140e+1	1.329e-1
2.150e+1	1.329e-1
2.160e+1	1.328e-1
2.170e+1	1.328e-1
2.180e+1	1.328e-1
2.190e+1	1.328e-1
2.200e+1	1.328e-1
2.210e+1	1.328e-1
2.220e+1	1.328e-1
2.230e+1	1.328e-1
2.240e+1	1.328e-1
2.250e+1	1.327e-1
2.260e+1	1.328e-1
2.270e+1	1.328e-1
2.280e+1	1.328e-1
2.290e+1	1.327e-1
2.300e+1	1.327e-1
2.310e+1	1.327e-1
2.320e+1	1.327e-1
2.330e+1	1.327e-1
2.340e+1	1.327e-1
2.350e+1	1.327e-1
2.360e+1	1.327e-1
2.370e+1	1.327e-1
2.380e+1	1.327e-1
2.390e+1	1.327e-1
2.400e+1	1.327e-1
2.410e+1	1.327e-1
2.420e+1	1.327e-1
2.430e+1	1.327e-1
2.440e+1	1.327e-1
2.450e+1	1.327e-1
2.460e+1	1.327e-1
2.470e+1	1.326e-1
2.480e+1	1.327e-1
2.490e+1	1.326e-1
2.500e+1	1.326e-1
2.510e+1	1.326e-1
2.520e+1	1.326e-1
2.530e+1	1.327e-1
2.540e+1	1.326e-1
2.550e+1	1.326e-1
2.560e+1	1.326e-1
2.570e+1	1.326e-1
2.580e+1	1.326e-1
2.590e+1	1.326e-1
2.600e+1	1.326e-1
2.610e+1	1.326e-1
2.620e+1	1.326e-1
2.630e+1	1.326e-1
2.640e+1	1.326e-1
2.650e+1	1.325e-1
2.660e+1	1.325e-1
2.670e+1	1.326e-1
2.680e+1	1.326e-1
2.690e+1	1.326e-1
2.700e+1	1.326e-1
2.710e+1	1.325e-1
2.720e+1	1.325e-1
2.730e+1	1.325e-1
2.740e+1	1.325e-1
2.750e+1	1.325e-1
2.760e+1	1.325e-1
2.770e+1	1.325e-1
2.780e+1	1.325e-1
2.790e+1	1.325e-1
2.800e+1	1.325e-1
2.810e+1	1.325e-1
2.820e+1	1.325e-1
2.830e+1	1.325e-1
2.840e+1	1.325e-1
2.850e+1	1.325e-1
2.860e+1	1.325e-1
2.870e+1	1.325e-1
2.880e+1	1.325e-1
2.890e+1	1.325e-1
2.900e+1	1.325e-1
2.910e+1	1.325e-1
2.920e+1	1.324e-1
2.930e+1	1.325e-1
2.940e+1	1.324e-1
2.950e+1	1.324e-1
2.960e+1	1.324e-1
2.970e+1	1.324e-1
2.980e+1	1.324e-1
2.990e+1	1.324e-1
3.000e+1	1.324e-1
3.010e+1	1.324e-1
3.020e+1	1.324e-1
3.030e+1	1.324e-1
3.040e+1	1.324e-1
3.050e+1	1.324e-1
3.060e+1	1.324e-1
3.070e+1	1.324e-1
3.080e+1	1.324e-1
3.090e+1	1.324e-1
3.100e+1	1.324e-1
3.110e+1	1.324e-1
3.120e+1	1.324e-1
3.130e+1	1.324e-1
3.140e+1	1.324e-1
3.150e+1	1.323e-1
3.160e+1	1.324e-1
3.170e+1	1.324e-1
3.180e+1	1.324e-1
3.190e+1	1.323e-1
3.200e+1	1.323e-1
3.210e+1	1.323e-1
3.220e+1	1.323e-1
3.230e+1	1.323e-1
3.240e+1	1.323e-1
3.250e+1	1.323e-1
3.260e+1	1.323e-1
3.270e+1	1.323e-1
3.280e+1	1.323e-1
3.290e+1	1.323e-1
3.300e+1	1.323e-1
3.310e+1	1.323e-1
3.320e+1	1.323e-1
3.330e+1	1.323e-1
3.340e+1	1.323e-1
3.350e+1	1.323e-1
3.360e+1	1.323e-1
3.370e+1	1.323e-1
3.380e+1	1.323e-1
3.390e+1	1.323e-1
3.400e+1	1.323e-1
3.410e+1	1.323e-1
3.420e+1	1.322e-1
3.430e+1	1.322e-1
3.440e+1	1.323e-1
3.450e+1	1.323e-1
3.460e+1	1.323e-1
3.470e+1	1.322e-1
3.480e+1	1.322e-1
3.490e+1	1.322e-1
3.500e+1	1.322e-1
3.510e+1	1.322e-1
3.520e+1	1.322e-1
3.530e+1	1.322e-1
3.540e+1	1.322e-1
3.550e+1	1.322e-1
3.560e+1	1.322e-1
3.570e+1	1.322e-1
3.580e+1	1.322e-1
3.590e+1	1.322e-1
3.600e+1	1.322e-1
3.610e+1	1.322e-1
3.620e+1	1.322e-1
3.630e+1	1.322e-1
3.640e+1	1.322e-1
3.650e+1	1.322e-1
3.660e+1	1.322e-1
3.670e+1	1.322e-1
3.680e+1	1.322e-1
3.690e+1	1.322e-1
3.700e+1	1.322e-1
3.710e+1	1.322e-1
3.720e+1	1.321e-1
3.730e+1	1.321e-1
3.740e+1	1.321e-1
3.750e+1	1.321e-1
3.760e+1	1.321e-1
3.770e+1	1.321e-1
3.780e+1	1.321e-1
3.790e+1	1.321e-1
3.800e+1	1.321e-1
3.810e+1	1.321e-1
3.820e+1	1.321e-1
3.830e+1	1.321e-1
3.840e+1	1.321e-1
3.850e+1	1.321e-1
3.860e+1	1.321e-1
3.870e+1	1.321e-1
3.880e+1	1.321e-1
3.890e+1	1.321e-1
3.900e+1	1.321e-1
3.910e+1	1.321e-1
3.920e+1	1.321e-1
3.930e+1	1.321e-1
3.940e+1	1.321e-1
3.950e+1	1.321e-1
3.960e+1	1.321e-1
3.970e+1	1.321e-1
3.980e+1	1.321e-1
3.990e+1	1.321e-1
4.000e+1	1.321e-1
4.010e+1	1.321e-1
4.020e+1	1.321e-1
4.030e+1	1.321e-1
4.040e+1	1.321e-1
4.050e+1	1.320e-1
4.060e+1	1.321e-1
4.070e+1	1.321e-1
4.080e+1	1.321e-1
4.090e+1	1.320e-1
4.100e+1	1.321e-1
4.110e+1	1.321e-1
4.120e+1	1.321e-1
4.130e+1	1.321e-1
4.140e+1	1.321e-1
4.150e+1	1.320e-1
4.160e+1	1.321e-1
4.170e+1	1.321e-1
4.180e+1	1.321e-1
4.190e+1	1.321e-1
4.200e+1	1.321e-1
4.210e+1	1.320e-1
4.220e+1	1.320e-1
4.230e+1	1.321e-1
4.240e+1	1.321e-1
4.250e+1	1.320e-1
4.260e+1	1.321e-1
4.270e+1	1.321e-1
4.280e+1	1.320e-1
4.290e+1	1.320e-1
4.300e+1	1.320e-1
4.310e+1	1.320e-1
4.320e+1	1.320e-1
4.330e+1	1.320e-1
4.340e+1	1.320e-1
4.350e+1	1.320e-1
4.360e+1	1.320e-1
4.370e+1	1.320e-1
4.380e+1	1.320e-1
4.390e+1	1.320e-1
4.400e+1	1.320e-1
4.410e+1	1.320e-1
4.420e+1	1.320e-1
4.430e+1	1.320e-1
4.440e+1	1.320e-1
4.450e+1	1.320e-1
4.460e+1	1.320e-1
4.470e+1	1.320e-1
4.480e+1	1.320e-1
4.490e+1	1.320e-1
4.500e+1	1.320e-1
4.510e+1	1.320e-1
4.520e+1	1.320e-1
4.530e+1	1.320e-1
4.540e+1	1.320e-1
4.550e+1	1.320e-1
4.560e+1	1.320e-1
4.570e+1	1.320e-1
4.580e+1	1.320e-1
4.590e+1	1.320e-1
4.600e+1	1.320e-1
4.610e+1	1.320e-1
4.620e+1	1.320e-1
4.630e+1	1.320e-1
4.640e+1	1.320e-1
4.650e+1	1.320e-1
4.660e+1	1.320e-1
4.670e+1	1.320e-1
4.680e+1	1.320e-1
4.690e+1	1.320e-1
4.700e+1	1.320e-1
4.710e+1	1.320e-1
4.720e+1	1.320e-1
4.730e+1	1.320e-1
4.740e+1	1.320e-1
4.750e+1	1.320e-1
4.760e+1	1.320e-1
4.770e+1	1.320e-1
4.780e+1	1.320e-1
4.790e+1	1.320e-1
4.800e+1	1.320e-1
4.810e+1	1.320e-1
4.820e+1	1.320e-1
4.830e+1	1.320e-1
4.840e+1	1.320e-1
4.850e+1	1.320e-1
4.860e+1	1.320e-1
4.870e+1	1.320e-1
4.880e+1	1.320e-1
4.890e+1	1.320e-1
4.900e+1	1.320e-1
4.910e+1	1.320e-1
4.920e+1	1.320e-1
4.930e+1	1.320e-1
4.940e+1	1.320e-1
4.950e+1	1.320e-1
4.960e+1	1.320e-1
4.970e+1	1.320e-1
4.980e+1	1.320e-1
4.990e+1	1.320e-1
5.000e+1	1.320e-1
5.010e+1	1.320e-1
5.020e+1	1.320e-1
5.030e+1	1.320e-1
5.040e+1	1.320e-1
5.050e+1	1.320e-1
5.060e+1	1.320e-1
5.070e+1	1.320e-1
5.080e+1	1.320e-1
5.090e+1	1.320e-1
5.100e+1	1.320e-1
5.110e+1	1.320e-1
5.120e+1	1.320e-1
5.130e+1	1.320e-1
5.140e+1	1.320e-1
5.150e+1	1.320e-1
5.160e+1	1.321e-1
5.170e+1	1.320e-1
5.180e+1	1.320e-1
5.190e+1	1.321e-1
5.200e+1	1.321e-1
5.210e+1	1.320e-1
5.220e+1	1.320e-1
5.230e+1	1.320e-1
5.240e+1	1.320e-1
5.250e+1	1.321e-1
5.260e+1	1.321e-1
5.270e+1	1.320e-1
5.280e+1	1.320e-1
5.290e+1	1.321e-1
5.300e+1	1.320e-1
5.310e+1	1.320e-1
5.320e+1	1.320e-1
5.330e+1	1.320e-1
5.340e+1	1.321e-1
5.350e+1	1.320e-1
5.360e+1	1.321e-1
5.370e+1	1.321e-1
5.380e+1	1.321e-1
5.390e+1	1.321e-1
5.400e+1	1.320e-1
5.410e+1	1.320e-1
5.420e+1	1.321e-1
5.430e+1	1.321e-1
5.440e+1	1.321e-1
5.450e+1	1.321e-1
5.460e+1	1.320e-1
5.470e+1	1.321e-1
5.480e+1	1.321e-1
5.490e+1	1.321e-1
5.500e+1	1.321e-1
5.510e+1	1.321e-1
5.520e+1	1.321e-1
5.530e+1	1.321e-1
5.540e+1	1.321e-1
5.550e+1	1.321e-1
5.560e+1	1.321e-1
5.570e+1	1.321e-1
5.580e+1	1.321e-1
5.590e+1	1.321e-1
5.600e+1	1.321e-1
5.610e+1	1.321e-1
5.620e+1	1.321e-1
5.630e+1	1.321e-1
5.640e+1	1.321e-1
5.650e+1	1.321e-1
5.660e+1	1.321e-1
5.670e+1	1.321e-1
5.680e+1	1.321e-1
5.690e+1	1.321e-1
5.700e+1	1.321e-1
5.710e+1	1.321e-1
5.720e+1	1.321e-1
5.730e+1	1.321e-1
5.740e+1	1.321e-1
5.750e+1	1.321e-1
5.760e+1	1.321e-1
5.770e+1	1.321e-1
5.780e+1	1.321e-1
5.790e+1	1.321e-1
5.800e+1	1.321e-1
5.810e+1	1.321e-1
5.820e+1	1.321e-1
5.830e+1	1.321e-1
5.840e+1	1.321e-1
5.850e+1	1.321e-1
5.860e+1	1.321e-1
5.870e+1	1.321e-1
5.880e+1	1.321e-1
5.890e+1	1.321e-1
5.900e+1	1.321e-1
5.910e+1	1.321e-1
5.920e+1	1.321e-1
5.930e+1	1.321e-1
5.940e+1	1.321e-1
5.950e+1	1.321e-1
5.960e+1	1.321e-1
5.970e+1	1.321e-1
5.980e+1	1.321e-1
5.990e+1	1.321e-1
6.000e+1	1.321e-1
6.010e+1	1.321e-1
6.020e+1	1.321e-1
6.030e+1	1.321e-1
6.040e+1	1.321e-1
6.050e+1	1.321e-1
6.060e+1	1.321e-1
6.070e+1	1.321e-1
6.080e+1	1.321e-1
6.090e+1	1.321e-1
6.100e+1	1.321e-1
6.110e+1	1.321e-1
6.120e+1	1.321e-1
6.130e+1	1.321e-1
6.140e+1	1.321e-1
6.150e+1	1.321e-1
6.160e+1	1.321e-1
6.170e+1	1.321e-1
6.180e+1	1.321e-1
6.190e+1	1.321e-1
6.200e+1	1.321e-1
6.210e+1	1.321e-1
6.220e+1	1.321e-1
6.230e+1	1.321e-1
6.240e+1	1.321e-1
6.250e+1	1.321e-1
6.260e+1	1.321e-1
6.270e+1	1.321e-1
6.280e+1	1.321e-1
6.290e+1	1.321e-1
6.300e+1	1.321e-1
6.310e+1	1.321e-1
6.320e+1	1.321e-1
6.330e+1	1.321e-1
6.340e+1	1.321e-1
6.350e+1	1.321e-1
6.360e+1	1.321e-1
6.370e+1	1.321e-1
6.380e+1	1.321e-1
6.390e+1	1.321e-1
6.400e+1	1.321e-1
6.410e+1	1.321e-1
6.420e+1	1.321e-1
6.430e+1	1.321e-1
6.440e+1	1.321e-1
6.450e+1	1.321e-1
6.460e+1	1.321e-1
6.470e+1	1.321e-1
6.480e+1	1.321e-1
6.490e+1	1.321e-1
6.500e+1	1.321e-1
6.510e+1	1.321e-1
6.520e+1	1.321e-1
6.530e+1	1.321e-1
6.540e+1	1.321e-1
6.550e+1	1.321e-1
6.560e+1	1.321e-1
6.570e+1	1.321e-1
6.580e+1	1.321e-1
6.590e+1	1.321e-1
6.600e+1	1.321e-1
6.610e+1	1.321e-1
6.620e+1	1.321e-1
6.630e+1	1.321e-1
6.640e+1	1.321e-1
6.650e+1	1.321e-1
6.660e+1	1.321e-1
6.670e+1	1.321e-1
6.680e+1	1.321e-1
6.690e+1	1.321e-1
6.700e+1	1.321e-1
6.710e+1	1.321e-1
6.720e+1	1.321e-1
6.730e+1	1.321e-1
6.740e+1	1.321e-1
6.750e+1	1.321e-1
6.760e+1	1.321e-1
6.770e+1	1.321e-1
6.780e+1	1.321e-1
6.790e+1	1.321e-1
6.800e+1	1.321e-1
6.810e+1	1.321e-1
6.820e+1	1.321e-1
6.830e+1	1.321e-1
6.840e+1	1.320e-1
6.850e+1	1.321e-1
6.860e+1	1.321e-1
6.870e+1	1.321e-1
6.880e+1	1.321e-1
6.890e+1	1.320e-1
6.900e+1	1.320e-1
6.910e+1	1.320e-1
6.920e+1	1.320e-1
6.930e+1	1.321e-1
6.940e+1	1.321e-1
6.950e+1	1.320e-1
6.960e+1	1.320e-1
6.970e+1	1.321e-1
6.980e+1	1.320e-1
6.990e+1	1.320e-1
7.000e+1	1.320e-1
7.010e+1	1.320e-1
7.020e+1	1.320e-1
7.030e+1	1.320e-1
7.040e+1	1.320e-1
7.050e+1	1.320e-1
7.060e+1	1.320e-1
7.070e+1	1.320e-1
7.080e+1	1.320e-1
7.090e+1	1.320e-1
7.100e+1	1.320e-1
7.110e+1	1.320e-1
7.120e+1	1.320e-1
7.130e+1	1.320e-1
7.140e+1	1.320e-1
7.150e+1	1.320e-1
7.160e+1	1.320e-1
7.170e+1	1.320e-1
7.180e+1	1.320e-1
7.190e+1	1.320e-1
7.200e+1	1.320e-1
7.210e+1	1.320e-1
7.220e+1	1.320e-1
7.230e+1	1.320e-1
7.240e+1	1.320e-1
7.250e+1	1.320e-1
7.260e+1	1.320e-1
7.270e+1	1.320e-1
7.280e+1	1.320e-1
7.290e+1	1.320e-1
7.300e+1	1.320e-1
7.310e+1	1.320e-1
7.320e+1	1.320e-1
7.330e+1	1.320e-1
7.340e+1	1.320e-1
7.350e+1	1.320e-1
7.360e+1	1.320e-1
7.370e+1	1.320e-1
7.380e+1	1.320e-1
7.390e+1	1.320e-1
7.400e+1	1.320e-1
7.410e+1	1.320e-1
7.420e+1	1.320e-1
7.430e+1	1.320e-1
7.440e+1	1.320e-1
7.450e+1	1.320e-1
7.460e+1	1.320e-1
7.470e+1	1.320e-1
7.480e+1	1.320e-1
7.490e+1	1.320e-1
7.500e+1	1.320e-1
7.510e+1	1.320e-1
7.520e+1	1.320e-1
7.530e+1	1.320e-1
7.540e+1	1.320e-1
7.550e+1	1.320e-1
7.560e+1	1.320e-1
7.570e+1	1.320e-1
7.580e+1	1.320e-1
7.590e+1	1.320e-1
7.600e+1	1.320e-1
7.610e+1	1.320e-1
7.620e+1	1.320e-1
7.630e+1	1.320e-1
7.640e+1	1.320e-1
7.650e+1	1.320e-1
7.660e+1	1.320e-1
7.670e+1	1.320e-1
7.680e+1	1.320e-1
7.690e+1	1.320e-1
7.700e+1	1.320e-1
7.710e+1	1.320e-1
7.720e+1	1.320e-1
7.730e+1	1.320e-1
7.740e+1	1.320e-1
7.750e+1	1.320e-1
7.760e+1	1.320e-1
7.770e+1	1.319e-1
7.780e+1	1.319e-1
7.790e+1	1.319e-1
7.800e+1	1.319e-1
7.810e+1	1.320e-1
7.820e+1	1.320e-1
7.830e+1	1.319e-1
7.840e+1	1.319e-1
7.850e+1	1.319e-1
7.860e+1	1.319e-1
7.870e+1	1.319e-1
7.880e+1	1.319e-1
7.890e+1	1.320e-1
7.900e+1	1.319e-1
7.910e+1	1.319e-1
7.920e+1	1.319e-1
7.930e+1	1.319e-1
7.940e+1	1.319e-1
7.950e+1	1.319e-1
7.960e+1	1.319e-1
7.970e+1	1.319e-1
7.980e+1	1.319e-1
7.990e+1	1.319e-1
8.000e+1	1.319e-1
8.010e+1	1.319e-1
8.020e+1	1.319e-1
8.030e+1	1.319e-1
8.040e+1	1.319e-1
8.050e+1	1.319e-1
8.060e+1	1.319e-1
8.070e+1	1.319e-1
8.080e+1	1.319e-1
8.090e+1	1.319e-1
8.100e+1	1.319e-1
8.110e+1	1.319e-1
8.120e+1	1.319e-1
8.130e+1	1.319e-1
8.140e+1	1.319e-1
8.150e+1	1.319e-1
8.160e+1	1.319e-1
8.170e+1	1.319e-1
8.180e+1	1.319e-1
8.190e+1	1.319e-1
8.200e+1	1.319e-1
8.210e+1	1.319e-1
8.220e+1	1.319e-1
8.230e+1	1.319e-1
8.240e+1	1.319e-1
8.250e+1	1.319e-1
8.260e+1	1.319e-1
8.270e+1	1.319e-1
8.280e+1	1.319e-1
8.290e+1	1.319e-1
8.300e+1	1.319e-1
8.310e+1	1.319e-1
8.320e+1	1.319e-1
8.330e+1	1.319e-1
8.340e+1	1.319e-1
8.350e+1	1.319e-1
8.360e+1	1.319e-1
8.370e+1	1.319e-1
8.380e+1	1.319e-1
8.390e+1	1.319e-1
8.400e+1	1.319e-1
8.410e+1	1.319e-1
8.420e+1	1.319e-1
8.430e+1	1.319e-1
8.440e+1	1.319e-1
8.450e+1	1.319e-1
8.460e+1	1.319e-1
8.470e+1	1.319e-1
8.480e+1	1.319e-1
8.490e+1	1.319e-1
8.500e+1	1.319e-1
8.510e+1	1.319e-1
8.520e+1	1.319e-1
8.530e+1	1.319e-1
8.540e+1	1.319e-1
8.550e+1	1.319e-1
8.560e+1	1.319e-1
8.570e+1	1.319e-1
8.580e+1	1.319e-1
8.590e+1	1.319e-1
8.600e+1	1.319e-1
8.610e+1	1.319e-1
8.620e+1	1.319e-1
8.630e+1	1.319e-1
8.640e+1	1.318e-1
8.650e+1	1.318e-1
8.660e+1	1.319e-1
8.670e+1	1.318e-1
8.680e+1	1.318e-1
8.690e+1	1.319e-1
8.700e+1	1.319e-1
8.710e+1	1.318e-1
8.720e+1	1.319e-1
8.730e+1	1.319e-1
8.740e+1	1.318e-1
8.750e+1	1.319e-1
8.760e+1	1.319e-1
8.770e+1	1.319e-1
8.780e+1	1.318e-1
8.790e+1	1.319e-1
8.800e+1	1.319e-1
8.810e+1	1.318e-1
8.820e+1	1.318e-1
8.830e+1	1.318e-1
8.840e+1	1.318e-1
8.850e+1	1.319e-1
8.860e+1	1.319e-1
8.870e+1	1.318e-1
8.880e+1	1.318e-1
8.890e+1	1.318e-1
8.900e+1	1.318e-1
8.910e+1	1.318e-1
8.920e+1	1.318e-1
8.930e+1	1.318e-1
8.940e+1	1.318e-1
8.950e+1	1.318e-1
8.960e+1	1.318e-1
8.970e+1	1.318e-1
8.980e+1	1.318e-1
8.990e+1	1.318e-1
9.000e+1	1.318e-1
9.010e+1	1.318e-1
9.020e+1	1.318e-1
9.030e+1	1.318e-1
9.040e+1	1.318e-1
9.050e+1	1.318e-1
9.060e+1	1.318e-1
9.070e+1	1.318e-1
9.080e+1	1.318e-1
9.090e+1	1.318e-1
9.100e+1	1.318e-1
9.110e+1	1.318e-1
9.120e+1	1.318e-1
9.130e+1	1.318e-1
9.140e+1	1.318e-1
9.150e+1	1.318e-1
9.160e+1	1.318e-1
9.170e+1	1.318e-1
9.180e+1	1.318e-1
9.190e+1	1.318e-1
9.200e+1	1.318e-1
9.210e+1	1.318e-1
9.220e+1	1.318e-1
9.230e+1	1.318e-1
9.240e+1	1.318e-1
9.250e+1	1.318e-1
9.260e+1	1.317e-1
9.270e+1	1.317e-1
9.280e+1	1.318e-1
9.290e+1	1.318e-1
9.300e+1	1.318e-1
9.310e+1	1.318e-1
9.320e+1	1.318e-1
9.330e+1	1.317e-1
9.340e+1	1.317e-1
9.350e+1	1.317e-1
9.360e+1	1.318e-1
9.370e+1	1.318e-1
9.380e+1	1.317e-1
9.390e+1	1.317e-1
9.400e+1	1.317e-1
9.410e+1	1.317e-1
9.420e+1	1.318e-1
9.430e+1	1.318e-1
9.440e+1	1.318e-1
9.450e+1	1.318e-1
9.460e+1	1.317e-1
9.470e+1	1.317e-1
9.480e+1	1.317e-1
9.490e+1	1.317e-1
9.500e+1	1.317e-1
9.510e+1	1.317e-1
9.520e+1	1.317e-1
9.530e+1	1.317e-1
9.540e+1	1.317e-1
9.550e+1	1.317e-1
9.560e+1	1.317e-1
9.570e+1	1.317e-1
9.580e+1	1.317e-1
9.590e+1	1.317e-1
9.600e+1	1.317e-1
9.610e+1	1.317e-1
9.620e+1	1.317e-1
9.630e+1	1.317e-1
9.640e+1	1.317e-1
9.650e+1	1.317e-1
9.660e+1	1.317e-1
9.670e+1	1.317e-1
9.680e+1	1.317e-1
9.690e+1	1.317e-1
9.700e+1	1.317e-1
9.710e+1	1.317e-1
9.720e+1	1.317e-1
9.730e+1	1.317e-1
9.740e+1	1.317e-1
9.750e+1	1.317e-1
9.760e+1	1.317e-1
9.770e+1	1.317e-1
9.780e+1	1.317e-1
9.790e+1	1.317e-1
9.800e+1	1.317e-1
9.810e+1	1.317e-1
9.820e+1	1.317e-1
9.830e+1	1.317e-1
9.840e+1	1.317e-1
9.850e+1	1.317e-1
9.860e+1	1.317e-1
9.870e+1	1.317e-1
9.880e+1	1.317e-1
9.890e+1	1.317e-1
9.900e+1	1.317e-1
9.910e+1	1.317e-1
9.920e+1	1.317e-1
9.930e+1	1.317e-1
9.940e+1	1.317e-1
9.950e+1	1.317e-1
9.960e+1	1.317e-1
9.970e+1	1.317e-1
9.980e+1	1.317e-1
9.990e+1	1.317e-1
1.000e+2	1.317e-1
1.001e+2	1.317e-1
1.002e+2	1.317e-1
1.003e+2	1.317e-1
1.004e+2	1.317e-1
1.005e+2	1.317e-1
1.006e+2	1.317e-1
1.007e+2	1.317e-1
1.008e+2	1.317e-1
1.009e+2	1.317e-1
1.010e+2	1.317e-1
1.011e+2	1.317e-1
1.012e+2	1.317e-1
1.013e+2	1.317e-1
1.014e+2	1.317e-1
1.015e+2	1.317e-1
1.016e+2	1.317e-1
1.017e+2	1.316e-1
1.018e+2	1.317e-1
1.019e+2	1.317e-1
1.020e+2	1.317e-1
1.021e+2	1.317e-1
1.022e+2	1.316e-1
1.023e+2	1.317e-1
1.024e+2	1.317e-1
1.025e+2	1.317e-1
1.026e+2	1.317e-1
1.027e+2	1.317e-1
1.028e+2	1.317e-1
1.029e+2	1.317e-1
1.030e+2	1.316e-1
1.031e+2	1.317e-1
1.032e+2	1.317e-1
1.033e+2	1.317e-1
1.034e+2	1.317e-1
1.035e+2	1.317e-1
1.036e+2	1.317e-1
1.037e+2	1.317e-1
1.038e+2	1.317e-1
1.039e+2	1.317e-1
1.040e+2	1.316e-1
1.041e+2	1.317e-1
1.042e+2	1.317e-1
1.043e+2	1.317e-1
1.044e+2	1.317e-1
1.045e+2	1.316e-1
1.046e+2	1.317e-1
1.047e+2	1.317e-1
1.048e+2	1.317e-1
1.049e+2	1.317e-1
1.050e+2	1.317e-1
1.051e+2	1.317e-1
1.052e+2	1.317e-1
1.053e+2	1.317e-1
1.054e+2	1.316e-1
1.055e+2	1.316e-1
1.056e+2	1.317e-1
1.057e+2	1.317e-1
1.058e+2	1.317e-1
1.059e+2	1.317e-1
1.060e+2	1.317e-1
1.061e+2	1.317e-1
1.062e+2	1.316e-1
1.063e+2	1.316e-1
1.064e+2	1.317e-1
1.065e+2	1.316e-1
1.066e+2	1.317e-1
1.067e+2	1.317e-1
1.068e+2	1.317e-1
1.069e+2	1.317e-1
1.070e+2	1.317e-1
1.071e+2	1.317e-1
1.072e+2	1.317e-1
1.073e+2	1.317e-1
1.074e+2	1.317e-1
1.075e+2	1.317e-1
1.076e+2	1.317e-1
1.077e+2	1.317e-1
1.078e+2	1.317e-1
1.079e+2	1.317e-1
1.080e+2	1.317e-1
1.081e+2	1.317e-1
1.082e+2	1.317e-1
1.083e+2	1.317e-1
1.084e+2	1.317e-1
1.085e+2	1.317e-1
1.086e+2	1.317e-1
1.087e+2	1.317e-1
1.088e+2	1.317e-1
1.089e+2	1.317e-1
1.090e+2	1.317e-1
1.091e+2	1.317e-1
1.092e+2	1.317e-1
1.093e+2	1.317e-1
1.094e+2	1.317e-1
1.095e+2	1.317e-1
1.096e+2	1.317e-1
1.097e+2	1.317e-1
1.098e+2	1.317e-1
1.099e+2	1.317e-1
1.100e+2	1.317e-1
1.101e+2	1.317e-1
1.102e+2	1.317e-1
1.103e+2	1.317e-1
1.104e+2	1.317e-1
1.105e+2	1.317e-1
1.106e+2	1.317e-1
1.107e+2	1.317e-1
1.108e+2	1.317e-1
1.109e+2	1.317e-1
1.110e+2	1.317e-1
1.111e+2	1.317e-1
1.112e+2	1.317e-1
1.113e+2	1.317e-1
1.114e+2	1.317e-1
1.115e+2	1.317e-1
1.116e+2	1.317e-1
1.117e+2	1.317e-1
1.118e+2	1.317e-1
1.119e+2	1.317e-1
1.120e+2	1.317e-1
1.121e+2	1.317e-1
1.122e+2	1.317e-1
1.123e+2	1.317e-1
1.124e+2	1.317e-1
1.125e+2	1.317e-1
1.126e+2	1.317e-1
1.127e+2	1.317e-1
1.128e+2	1.317e-1
1.129e+2	1.317e-1
1.130e+2	1.317e-1
1.131e+2	1.317e-1
1.132e+2	1.317e-1
1.133e+2	1.317e-1
1.134e+2	1.317e-1
1.135e+2	1.317e-1
1.136e+2	1.317e-1
1.137e+2	1.317e-1
1.138e+2	1.317e-1
1.139e+2	1.317e-1
1.140e+2	1.317e-1
1.141e+2	1.317e-1
1.142e+2	1.317e-1
1.143e+2	1.317e-1
1.144e+2	1.317e-1
1.145e+2	1.317e-1
1.146e+2	1.317e-1
1.147e+2	1.317e-1
1.148e+2	1.317e-1
1.149e+2	1.317e-1
1.150e+2	1.317e-1
1.151e+2	1.317e-1
1.152e+2	1.317e-1
1.153e+2	1.317e-1
1.154e+2	1.317e-1
1.155e+2	1.317e-1
1.156e+2	1.317e-1
1.157e+2	1.317e-1
1.158e+2	1.317e-1
1.159e+2	1.317e-1
1.160e+2	1.317e-1
1.161e+2	1.317e-1
1.162e+2	1.318e-1
1.163e+2	1.317e-1
1.164e+2	1.318e-1
1.165e+2	1.318e-1
1.166e+2	1.317e-1
1.167e+2	1.317e-1
1.168e+2	1.318e-1
1.169e+2	1.318e-1
1.170e+2	1.318e-1
1.171e+2	1.317e-1
1.172e+2	1.317e-1
1.173e+2	1.318e-1
1.174e+2	1.318e-1
1.175e+2	1.318e-1
1.176e+2	1.318e-1
1.177e+2	1.318e-1
1.178e+2	1.318e-1
1.179e+2	1.317e-1
1.180e+2	1.318e-1
1.181e+2	1.318e-1
1.182e+2	1.318e-1
1.183e+2	1.318e-1
1.184e+2	1.318e-1
1.185e+2	1.318e-1
1.186e+2	1.318e-1
1.187e+2	1.318e-1
1.188e+2	1.318e-1
1.189e+2	1.318e-1
1.190e+2	1.317e-1
1.191e+2	1.318e-1
1.192e+2	1.318e-1
1.193e+2	1.318e-1
1.194e+2	1.318e-1
1.195e+2	1.318e-1
1.196e+2	1.318e-1
1.197e+2	1.318e-1
1.198e+2	1.318e-1
1.199e+2	1.318e-1
1.200e+2	1.318e-1
1.201e+2	1.318e-1
1.202e+2	1.318e-1
1.203e+2	1.318e-1
1.204e+2	1.318e-1
1.205e+2	1.318e-1
1.206e+2	1.318e-1
1.207e+2	1.318e-1
1.208e+2	1.318e-1
1.209e+2	1.318e-1
1.210e+2	1.318e-1
1.211e+2	1.318e-1
1.212e+2	1.318e-1
1.213e+2	1.318e-1
1.214e+2	1.318e-1
1.215e+2	1.318e-1
1.216e+2	1.318e-1
1.217e+2	1.318e-1
1.218e+2	1.318e-1
1.219e+2	1.318e-1
1.220e+2	1.318e-1
1.221e+2	1.318e-1
1.222e+2	1.318e-1
1.223e+2	1.318e-1
1.224e+2	1.318e-1
1.225e+2	1.318e-1
1.226e+2	1.318e-1
1.227e+2	1.318e-1
1.228e+2	1.318e-1
1.229e+2	1.318e-1
1.230e+2	1.318e-1
1.231e+2	1.318e-1
1.232e+2	1.318e-1
1.233e+2	1.318e-1
1.234e+2	1.318e-1
1.235e+2	1.318e-1
1.236e+2	1.318e-1
1.237e+2	1.318e-1
1.238e+2	1.318e-1
1.239e+2	1.318e-1
1.240e+2	1.318e-1
1.241e+2	1.318e-1
1.242e+2	1.318e-1
1.243e+2	1.318e-1
1.244e+2	1.318e-1
1.245e+2	1.318e-1
1.246e+2	1.318e-1
1.247e+2	1.318e-1
1.248e+2	1.318e-1
1.249e+2	1.318e-1
1.250e+2	1.318e-1
1.251e+2	1.318e-1
1.252e+2	1.318e-1
1.253e+2	1.318e-1
1.254e+2	1.318e-1
1.255e+2	1.318e-1
1.256e+2	1.318e-1
1.257e+2	1.318e-1
1.258e+2	1.318e-1
1.259e+2	1.318e-1
1.260e+2	1.318e-1
1.261e+2	1.318e-1
1.262e+2	1.318e-1
1.263e+2	1.318e-1
1.264e+2	1.318e-1
1.265e+2	1.318e-1
1.266e+2	1.318e-1
1.267e+2	1.318e-1
1.268e+2	1.318e-1
1.269e+2	1.318e-1
1.270e+2	1.318e-1
1.271e+2	1.318e-1
1.272e+2	1.318e-1
1.273e+2	1.318e-1
1.274e+2	1.318e-1
1.275e+2	1.318e-1
1.276e+2	1.318e-1
1.277e+2	1.318e-1
1.278e+2	1.318e-1
1.279e+2	1.318e-1
1.280e+2	1.318e-1
1.281e+2	1.318e-1
1.282e+2	1.318e-1
1.283e+2	1.318e-1
1.284e+2	1.318e-1
1.285e+2	1.318e-1
1.286e+2	1.318e-1
1.287e+2	1.318e-1
1.288e+2	1.318e-1
1.289e+2	1.318e-1
1.290e+2	1.318e-1
1.291e+2	1.318e-1
1.292e+2	1.318e-1
1.293e+2	1.318e-1
1.294e+2	1.318e-1
1.295e+2	1.318e-1
1.296e+2	1.318e-1
1.297e+2	1.318e-1
1.298e+2	1.318e-1
1.299e+2	1.318e-1
1.300e+2	1.318e-1
1.301e+2	1.318e-1
1.302e+2	1.318e-1
1.303e+2	1.318e-1
1.304e+2	1.318e-1
1.305e+2	1.318e-1
1.306e+2	1.318e-1
1.307e+2	1.318e-1
1.308e+2	1.318e-1
1.309e+2	1.318e-1
1.310e+2	1.318e-1
1.311e+2	1.318e-1
1.312e+2	1.318e-1
1.313e+2	1.318e-1
1.314e+2	1.318e-1
1.315e+2	1.318e-1
1.316e+2	1.318e-1
1.317e+2	1.318e-1
1.318e+2	1.318e-1
1.319e+2	1.318e-1
1.320e+2	1.318e-1
1.321e+2	1.318e-1
1.322e+2	1.318e-1
1.323e+2	1.318e-1
1.324e+2	1.318e-1
1.325e+2	1.318e-1
1.326e+2	1.318e-1
1.327e+2	1.318e-1
1.328e+2	1.318e-1
1.329e+2	1.318e-1
1.330e+2	1.318e-1
1.331e+2	1.318e-1
1.332e+2	1.318e-1
1.333e+2	1.317e-1
1.334e+2	1.317e-1
1.335e+2	1.318e-1
1.336e+2	1.318e-1
1.337e+2	1.317e-1
1.338e+2	1.317e-1
1.339e+2	1.318e-1
1.340e+2	1.318e-1
1.341e+2	1.318e-1
1.342e+2	1.317e-1
1.343e+2	1.317e-1
1.344e+2	1.317e-1
1.345e+2	1.317e-1
1.346e+2	1.317e-1
1.347e+2	1.317e-1
1.348e+2	1.317e-1
1.349e+2	1.317e-1
1.350e+2	1.317e-1
1.351e+2	1.317e-1
1.352e+2	1.317e-1
1.353e+2	1.317e-1
1.354e+2	1.317e-1
1.355e+2	1.317e-1
1.356e+2	1.317e-1
1.357e+2	1.317e-1
1.358e+2	1.317e-1
1.359e+2	1.317e-1
1.360e+2	1.317e-1
1.361e+2	1.317e-1
1.362e+2	1.317e-1
1.363e+2	1.317e-1
1.364e+2	1.317e-1
1.365e+2	1.317e-1
1.366e+2	1.317e-1
1.367e+2	1.317e-1
1.368e+2	1.317e-1
1.369e+2	1.317e-1
1.370e+2	1.317e-1
1.371e+2	1.317e-1
1.372e+2	1.317e-1
1.373e+2	1.317e-1
1.374e+2	1.317e-1
1.375e+2	1.317e-1
1.376e+2	1.317e-1
1.377e+2	1.317e-1
1.378e+2	1.317e-1
1.379e+2	1.317e-1
1.380e+2	1.317e-1
1.381e+2	1.317e-1
1.382e+2	1.317e-1
1.383e+2	1.317e-1
1.384e+2	1.317e-1
1.385e+2	1.317e-1
1.386e+2	1.317e-1
1.387e+2	1.317e-1
1.388e+2	1.317e-1
1.389e+2	1.317e-1
1.390e+2	1.317e-1
1.391e+2	1.317e-1
1.392e+2	1.317e-1
1.393e+2	1.317e-1
1.394e+2	1.317e-1
1.395e+2	1.317e-1
1.396e+2	1.317e-1
1.397e+2	1.317e-1
1.398e+2	1.317e-1
1.399e+2	1.316e-1
1.400e+2	1.317e-1
1.401e+2	1.316e-1
1.402e+2	1.316e-1
1.403e+2	1.317e-1
1.404e+2	1.317e-1
1.405e+2	1.317e-1
1.406e+2	1.317e-1
1.407e+2	1.317e-1
1.408e+2	1.317e-1
1.409e+2	1.316e-1
1.410e+2	1.317e-1
1.411e+2	1.317e-1
1.412e+2	1.317e-1
1.413e+2	1.316e-1
1.414e+2	1.316e-1
1.415e+2	1.316e-1
1.416e+2	1.316e-1
1.417e+2	1.316e-1
1.418e+2	1.316e-1
1.419e+2	1.316e-1
1.420e+2	1.316e-1
1.421e+2	1.316e-1
1.422e+2	1.316e-1
1.423e+2	1.316e-1
1.424e+2	1.316e-1
1.425e+2	1.316e-1
1.426e+2	1.316e-1
1.427e+2	1.316e-1
1.428e+2	1.316e-1
1.429e+2	1.316e-1
1.430e+2	1.316e-1
1.431e+2	1.316e-1
1.432e+2	1.316e-1
1.433e+2	1.316e-1
1.434e+2	1.316e-1
1.435e+2	1.316e-1
1.436e+2	1.316e-1
1.437e+2	1.316e-1
1.438e+2	1.316e-1
1.439e+2	1.316e-1
1.440e+2	1.316e-1
1.441e+2	1.316e-1
1.442e+2	1.316e-1
1.443e+2	1.316e-1
1.444e+2	1.316e-1
1.445e+2	1.316e-1
1.446e+2	1.316e-1
1.447e+2	1.316e-1
1.448e+2	1.316e-1
1.449e+2	1.316e-1
1.450e+2	1.316e-1
1.451e+2	1.316e-1
1.452e+2	1.316e-1
1.453e+2	1.316e-1
1.454e+2	1.316e-1
1.455e+2	1.316e-1
1.456e+2	1.316e-1
1.457e+2	1.316e-1
1.458e+2	1.316e-1
1.459e+2	1.316e-1
1.460e+2	1.316e-1
1.461e+2	1.316e-1
1.462e+2	1.316e-1
1.463e+2	1.316e-1
1.464e+2	1.316e-1
1.465e+2	1.316e-1
1.466e+2	1.316e-1
1.467e+2	1.315e-1
1.468e+2	1.315e-1
1.469e+2	1.316e-1
1.470e+2	1.316e-1
1.471e+2	1.315e-1
1.472e+2	1.315e-1
1.473e+2	1.316e-1
1.474e+2	1.316e-1
1.475e+2	1.315e-1
1.476e+2	1.316e-1
1.477e+2	1.316e-1
1.478e+2	1.315e-1
1.479e+2	1.315e-1
1.480e+2	1.315e-1
1.481e+2	1.315e-1
1.482e+2	1.316e-1
1.483e+2	1.316e-1
1.484e+2	1.315e-1
1.485e+2	1.315e-1
1.486e+2	1.315e-1
1.487e+2	1.315e-1
1.488e+2	1.315e-1
1.489e+2	1.315e-1
1.490e+2	1.315e-1
1.491e+2	1.315e-1
1.492e+2	1.315e-1
1.493e+2	1.315e-1
1.494e+2	1.316e-1
1.495e+2	1.315e-1
1.496e+2	1.315e-1
1.497e+2	1.315e-1
1.498e+2	1.316e-1
1.499e+2	1.316e-1
1.500e+2	1.315e-1
1.501e+2	1.315e-1
1.502e+2	1.315e-1
1.503e+2	1.315e-1
1.504e+2	1.315e-1
1.505e+2	1.315e-1
1.506e+2	1.315e-1
1.507e+2	1.315e-1
1.508e+2	1.315e-1
1.509e+2	1.315e-1
1.510e+2	1.315e-1
1.511e+2	1.315e-1
1.512e+2	1.315e-1
1.513e+2	1.315e-1
1.514e+2	1.315e-1
1.515e+2	1.315e-1
1.516e+2	1.315e-1
1.517e+2	1.315e-1
1.518e+2	1.315e-1
1.519e+2	1.315e-1
1.520e+2	1.315e-1
1.521e+2	1.315e-1
1.522e+2	1.315e-1
1.523e+2	1.315e-1
1.524e+2	1.315e-1
1.525e+2	1.315e-1
1.526e+2	1.315e-1
1.527e+2	1.315e-1
1.528e+2	1.315e-1
1.529e+2	1.315e-1
1.530e+2	1.315e-1
1.531e+2	1.315e-1
1.532e+2	1.315e-1
1.533e+2	1.315e-1
1.534e+2	1.315e-1
1.535e+2	1.315e-1
1.536e+2	1.315e-1
1.537e+2	1.315e-1
1.538e+2	1.315e-1
1.539e+2	1.315e-1
1.540e+2	1.315e-1
1.541e+2	1.315e-1
1.542e+2	1.315e-1
1.543e+2	1.315e-1
1.544e+2	1.315e-1
1.545e+2	1.315e-1
1.546e+2	1.315e-1
1.547e+2	1.315e-1
1.548e+2	1.315e-1
1.549e+2	1.315e-1
1.550e+2	1.315e-1
1.551e+2	1.315e-1
1.552e+2	1.315e-1
1.553e+2	1.315e-1
1.554e+2	1.315e-1
1.555e+2	1.315e-1
1.556e+2	1.315e-1
1.557e+2	1.315e-1
1.558e+2	1.315e-1
1.559e+2	1.315e-1
1.560e+2	1.315e-1
1.561e+2	1.315e-1
1.562e+2	1.315e-1
1.563e+2	1.315e-1
1.564e+2	1.315e-1
1.565e+2	1.315e-1
1.566e+2	1.315e-1
1.567e+2	1.315e-1
1.568e+2	1.315e-1
1.569e+2	1.315e-1
1.570e+2	1.315e-1
1.571e+2	1.315e-1
1.572e+2	1.315e-1
1.573e+2	1.315e-1
1.574e+2	1.315e-1
1.575e+2	1.315e-1
1.576e+2	1.315e-1
1.577e+2	1.315e-1
1.578e+2	1.315e-1
1.579e+2	1.315e-1
1.580e+2	1.315e-1
1.581e+2	1.315e-1
1.582e+2	1.315e-1
1.583e+2	1.315e-1
1.584e+2	1.315e-1
1.585e+2	1.315e-1
1.586e+2	1.315e-1
1.587e+2	1.315e-1
1.588e+2	1.315e-1
1.589e+2	1.315e-1
1.590e+2	1.315e-1
1.591e+2	1.315e-1
1.592e+2	1.315e-1
1.593e+2	1.315e-1
1.594e+2	1.315e-1
1.595e+2	1.315e-1
1.596e+2	1.315e-1
1.597e+2	1.315e-1
1.598e+2	1.315e-1
1.599e+2	1.315e-1
1.600e+2	1.315e-1
1.601e+2	1.315e-1
1.602e+2	1.315e-1
1.603e+2	1.315e-1
1.604e+2	1.315e-1
1.605e+2	1.315e-1
1.606e+2	1.315e-1
1.607e+2	1.315e-1
1.608e+2	1.315e-1
1.609e+2	1.315e-1
1.610e+2	1.315e-1
1.611e+2	1.315e-1
1.612e+2	1.315e-1
1.613e+2	1.315e-1
1.614e+2	1.315e-1
1.615e+2	1.315e-1
1.616e+2	1.315e-1
1.617e+2	1.315e-1
1.618e+2	1.315e-1
1.619e+2	1.315e-1
1.620e+2	1.315e-1
1.621e+2	1.315e-1
1.622e+2	1.315e-1
1.623e+2	1.315e-1
1.624e+2	1.315e-1
1.625e+2	1.315e-1
1.626e+2	1.315e-1
1.627e+2	1.315e-1
1.628e+2	1.315e-1
1.629e+2	1.315e-1
1.630e+2	1.315e-1
1.631e+2	1.315e-1
1.632e+2	1.315e-1
1.633e+2	1.315e-1
1.634e+2	1.315e-1
1.635e+2	1.315e-1
1.636e+2	1.315e-1
1.637e+2	1.315e-1
1.638e+2	1.315e-1
1.639e+2	1.315e-1
1.640e+2	1.315e-1
1.641e+2	1.315e-1
1.642e+2	1.316e-1
1.643e+2	1.316e-1
1.644e+2	1.315e-1
1.645e+2	1.315e-1
1.646e+2	1.315e-1
1.647e+2	1.315e-1
1.648e+2	1.315e-1
1.649e+2	1.315e-1
1.650e+2	1.315e-1
1.651e+2	1.315e-1
1.652e+2	1.315e-1
1.653e+2	1.315e-1
1.654e+2	1.315e-1
1.655e+2	1.315e-1
1.656e+2	1.315e-1
1.657e+2	1.315e-1
1.658e+2	1.315e-1
1.659e+2	1.315e-1
1.660e+2	1.315e-1
1.661e+2	1.315e-1
1.662e+2	1.315e-1
1.663e+2	1.315e-1
1.664e+2	1.315e-1
1.665e+2	1.315e-1
1.666e+2	1.315e-1
1.667e+2	1.315e-1
1.668e+2	1.315e-1
1.669e+2	1.315e-1
1.670e+2	1.316e-1
1.671e+2	1.315e-1
1.672e+2	1.315e-1
1.673e+2	1.315e-1
1.674e+2	1.315e-1
1.675e+2	1.315e-1
1.676e+2	1.315e-1
1.677e+2	1.315e-1
1.678e+2	1.315e-1
1.679e+2	1.315e-1
1.680e+2	1.315e-1
1.681e+2	1.315e-1
1.682e+2	1.315e-1
1.683e+2	1.315e-1
1.684e+2	1.315e-1
1.685e+2	1.315e-1
1.686e+2	1.315e-1
1.687e+2	1.316e-1
1.688e+2	1.315e-1
1.689e+2	1.315e-1
1.690e+2	1.315e-1
1.691e+2	1.315e-1
1.692e+2	1.315e-1
1.693e+2	1.315e-1
1.694e+2	1.315e-1
1.695e+2	1.315e-1
1.696e+2	1.315e-1
1.697e+2	1.315e-1
1.698e+2	1.315e-1
1.699e+2	1.315e-1
1.700e+2	1.315e-1
1.701e+2	1.315e-1
1.702e+2	1.315e-1
1.703e+2	1.315e-1
1.704e+2	1.315e-1
1.705e+2	1.316e-1
1.706e+2	1.316e-1
1.707e+2	1.315e-1
1.708e+2	1.315e-1
1.709e+2	1.315e-1
1.710e+2	1.315e-1
1.711e+2	1.315e-1
1.712e+2	1.315e-1
1.713e+2	1.315e-1
1.714e+2	1.316e-1
1.715e+2	1.316e-1
1.716e+2	1.315e-1
1.717e+2	1.315e-1
1.718e+2	1.316e-1
1.719e+2	1.315e-1
1.720e+2	1.315e-1
1.721e+2	1.315e-1
1.722e+2	1.315e-1
1.723e+2	1.315e-1
1.724e+2	1.315e-1
1.725e+2	1.316e-1
1.726e+2	1.315e-1
1.727e+2	1.315e-1
1.728e+2	1.315e-1
1.729e+2	1.316e-1
1.730e+2	1.315e-1
1.731e+2	1.315e-1
1.732e+2	1.315e-1
1.733e+2	1.316e-1
1.734e+2	1.316e-1
1.735e+2	1.316e-1
1.736e+2	1.316e-1
1.737e+2	1.315e-1
1.738e+2	1.315e-1
1.739e+2	1.315e-1
1.740e+2	1.315e-1
1.741e+2	1.315e-1
1.742e+2	1.315e-1
1.743e+2	1.315e-1
1.744e+2	1.315e-1
1.745e+2	1.315e-1
1.746e+2	1.315e-1
1.747e+2	1.315e-1
1.748e+2	1.316e-1
1.749e+2	1.315e-1
1.750e+2	1.315e-1
1.751e+2	1.316e-1
1.752e+2	1.316e-1
1.753e+2	1.316e-1
1.754e+2	1.316e-1
1.755e+2	1.315e-1
1.756e+2	1.316e-1
1.757e+2	1.316e-1
1.758e+2	1.316e-1
1.759e+2	1.316e-1
1.760e+2	1.316e-1
1.761e+2	1.315e-1
1.762e+2	1.316e-1
1.763e+2	1.316e-1
1.764e+2	1.316e-1
1.765e+2	1.316e-1
1.766e+2	1.316e-1
1.767e+2	1.316e-1
1.768e+2	1.316e-1
1.769e+2	1.315e-1
1.770e+2	1.315e-1
1.771e+2	1.316e-1
1.772e+2	1.316e-1
1.773e+2	1.315e-1
1.774e+2	1.315e-1
1.775e+2	1.315e-1
1.776e+2	1.316e-1
1.777e+2	1.316e-1
1.778e+2	1.316e-1
1.779e+2	1.316e-1
1.780e+2	1.316e-1
1.781e+2	1.316e-1
1.782e+2	1.316e-1
1.783e+2	1.316e-1
1.784e+2	1.316e-1
1.785e+2	1.316e-1
1.786e+2	1.315e-1
1.787e+2	1.316e-1
1.788e+2	1.316e-1
1.789e+2	1.316e-1
1.790e+2	1.316e-1
1.791e+2	1.316e-1
1.792e+2	1.316e-1
1.793e+2	1.316e-1
1.794e+2	1.316e-1
1.795e+2	1.316e-1
1.796e+2	1.316e-1
1.797e+2	1.316e-1
1.798e+2	1.316e-1
1.799e+2	1.316e-1
1.800e+2	1.316e-1
