June 5, 2018   15:46:58
Chronoamperometry
File: ca 0mm
Data Source:  Experiment
Instrument Model:  CHI614B
Header: 
Note: 

Init E (V) = 0.5
High E (V) = 0.5
Low E (V) = -0.1
Init P/N = N
Step = 1
Pulse Width (sec) = 5.
Sample Interval (s) = 1e-3
Quiet Time (sec) = 20
Sensitivity (A/V) = 1e-4

Forward:
Slp = 2.287e-6
Int = 7.907e-7
Cor = 0.97684

Time/sec, Current/A

Step 1:
1.000e-3	9.999e-4
2.000e-3	7.044e-4
3.000e-3	2.301e-4
4.000e-3	8.757e-5
5.000e-3	5.086e-5
6.000e-3	3.922e-5
7.000e-3	3.394e-5
8.000e-3	3.092e-5
9.000e-3	2.844e-5
1.000e-2	2.655e-5
1.100e-2	2.508e-5
1.200e-2	2.405e-5
1.300e-2	2.304e-5
1.400e-2	2.209e-5
1.500e-2	2.118e-5
1.600e-2	2.060e-5
1.700e-2	2.001e-5
1.800e-2	1.947e-5
1.900e-2	1.898e-5
2.000e-2	1.855e-5
2.100e-2	1.815e-5
2.200e-2	1.772e-5
2.300e-2	1.733e-5
2.400e-2	1.711e-5
2.500e-2	1.675e-5
2.600e-2	1.635e-5
2.700e-2	1.620e-5
2.800e-2	1.583e-5
2.900e-2	1.574e-5
3.000e-2	1.531e-5
3.100e-2	1.525e-5
3.200e-2	1.485e-5
3.300e-2	1.476e-5
3.400e-2	1.467e-5
3.500e-2	1.430e-5
3.600e-2	1.430e-5
3.700e-2	1.418e-5
3.800e-2	1.391e-5
3.900e-2	1.378e-5
4.000e-2	1.372e-5
4.100e-2	1.333e-5
4.200e-2	1.333e-5
4.300e-2	1.333e-5
4.400e-2	1.290e-5
4.500e-2	1.284e-5
4.600e-2	1.278e-5
4.700e-2	1.262e-5
4.800e-2	1.238e-5
4.900e-2	1.232e-5
5.000e-2	1.226e-5
5.100e-2	1.207e-5
5.200e-2	1.204e-5
5.300e-2	1.186e-5
5.400e-2	1.186e-5
5.500e-2	1.180e-5
5.600e-2	1.183e-5
5.700e-2	1.152e-5
5.800e-2	1.146e-5
5.900e-2	1.137e-5
6.000e-2	1.137e-5
6.100e-2	1.134e-5
6.200e-2	1.128e-5
6.300e-2	1.119e-5
6.400e-2	1.101e-5
6.500e-2	1.091e-5
6.600e-2	1.091e-5
6.700e-2	1.085e-5
6.800e-2	1.082e-5
6.900e-2	1.076e-5
7.000e-2	1.055e-5
7.100e-2	1.046e-5
7.200e-2	1.043e-5
7.300e-2	1.039e-5
7.400e-2	1.039e-5
7.500e-2	1.039e-5
7.600e-2	1.036e-5
7.700e-2	1.033e-5
7.800e-2	1.027e-5
7.900e-2	1.015e-5
8.000e-2	1.003e-5
8.100e-2	9.937e-6
8.200e-2	9.906e-6
8.300e-2	9.937e-6
8.400e-2	9.876e-6
8.500e-2	9.906e-6
8.600e-2	9.815e-6
8.700e-2	9.723e-6
8.800e-2	9.570e-6
8.900e-2	9.601e-6
9.000e-2	9.509e-6
9.100e-2	9.448e-6
9.200e-2	9.418e-6
9.300e-2	9.418e-6
9.400e-2	9.418e-6
9.500e-2	9.387e-6
9.600e-2	9.326e-6
9.700e-2	9.234e-6
9.800e-2	9.234e-6
9.900e-2	9.143e-6
1.000e-1	9.082e-6
1.010e-1	9.082e-6
1.020e-1	9.082e-6
1.030e-1	9.051e-6
1.040e-1	8.960e-6
1.050e-1	8.898e-6
1.060e-1	8.929e-6
1.070e-1	9.021e-6
1.080e-1	8.868e-6
1.090e-1	8.776e-6
1.100e-1	8.776e-6
1.110e-1	8.776e-6
1.120e-1	8.685e-6
1.130e-1	8.563e-6
1.140e-1	8.593e-6
1.150e-1	8.471e-6
1.160e-1	8.440e-6
1.170e-1	8.440e-6
1.180e-1	8.440e-6
1.190e-1	8.440e-6
1.200e-1	8.440e-6
1.210e-1	8.410e-6
1.220e-1	8.410e-6
1.230e-1	8.379e-6
1.240e-1	8.410e-6
1.250e-1	8.349e-6
1.260e-1	8.288e-6
1.270e-1	8.043e-6
1.280e-1	8.166e-6
1.290e-1	8.013e-6
1.300e-1	8.013e-6
1.310e-1	7.982e-6
1.320e-1	7.952e-6
1.330e-1	7.952e-6
1.340e-1	7.952e-6
1.350e-1	7.952e-6
1.360e-1	7.952e-6
1.370e-1	7.921e-6
1.380e-1	7.952e-6
1.390e-1	7.891e-6
1.400e-1	7.952e-6
1.410e-1	7.799e-6
1.420e-1	7.830e-6
1.430e-1	7.860e-6
1.440e-1	7.677e-6
1.450e-1	7.677e-6
1.460e-1	7.707e-6
1.470e-1	7.555e-6
1.480e-1	7.585e-6
1.490e-1	7.463e-6
1.500e-1	7.524e-6
1.510e-1	7.463e-6
1.520e-1	7.463e-6
1.530e-1	7.463e-6
1.540e-1	7.463e-6
1.550e-1	7.463e-6
1.560e-1	7.463e-6
1.570e-1	7.463e-6
1.580e-1	7.463e-6
1.590e-1	7.341e-6
1.600e-1	7.433e-6
1.610e-1	7.402e-6
1.620e-1	7.310e-6
1.630e-1	7.280e-6
1.640e-1	7.463e-6
1.650e-1	7.188e-6
1.660e-1	7.188e-6
1.670e-1	7.158e-6
1.680e-1	7.036e-6
1.690e-1	7.005e-6
1.700e-1	7.097e-6
1.710e-1	6.974e-6
1.720e-1	7.036e-6
1.730e-1	7.005e-6
1.740e-1	7.005e-6
1.750e-1	7.005e-6
1.760e-1	6.974e-6
1.770e-1	6.944e-6
1.780e-1	6.974e-6
1.790e-1	6.974e-6
1.800e-1	6.974e-6
1.810e-1	6.944e-6
1.820e-1	6.944e-6
1.830e-1	6.822e-6
1.840e-1	6.883e-6
1.850e-1	6.883e-6
1.860e-1	6.822e-6
1.870e-1	6.822e-6
1.880e-1	6.822e-6
1.890e-1	6.639e-6
1.900e-1	6.761e-6
1.910e-1	6.608e-6
1.920e-1	6.639e-6
1.930e-1	6.700e-6
1.940e-1	6.608e-6
1.950e-1	6.577e-6
1.960e-1	6.608e-6
1.970e-1	6.516e-6
1.980e-1	6.516e-6
1.990e-1	6.486e-6
2.000e-1	6.516e-6
2.010e-1	6.486e-6
2.020e-1	6.486e-6
2.030e-1	6.486e-6
2.040e-1	6.486e-6
2.050e-1	6.455e-6
2.060e-1	6.486e-6
2.070e-1	6.455e-6
2.080e-1	6.486e-6
2.090e-1	6.455e-6
2.100e-1	6.486e-6
2.110e-1	6.394e-6
2.120e-1	6.455e-6
2.130e-1	6.394e-6
2.140e-1	6.425e-6
2.150e-1	6.333e-6
2.160e-1	6.303e-6
2.170e-1	6.272e-6
2.180e-1	6.303e-6
2.190e-1	6.089e-6
2.200e-1	6.089e-6
2.210e-1	6.150e-6
2.220e-1	6.028e-6
2.230e-1	6.119e-6
2.240e-1	6.089e-6
2.250e-1	6.028e-6
2.260e-1	6.119e-6
2.270e-1	5.967e-6
2.280e-1	5.997e-6
2.290e-1	5.997e-6
2.300e-1	6.028e-6
2.310e-1	5.967e-6
2.320e-1	5.997e-6
2.330e-1	5.967e-6
2.340e-1	5.997e-6
2.350e-1	5.997e-6
2.360e-1	5.997e-6
2.370e-1	5.967e-6
2.380e-1	5.997e-6
2.390e-1	5.967e-6
2.400e-1	5.997e-6
2.410e-1	5.997e-6
2.420e-1	5.936e-6
2.430e-1	5.845e-6
2.440e-1	5.967e-6
2.450e-1	5.875e-6
2.460e-1	5.906e-6
2.470e-1	5.906e-6
2.480e-1	5.875e-6
2.490e-1	5.753e-6
2.500e-1	5.783e-6
2.510e-1	5.814e-6
2.520e-1	5.814e-6
2.530e-1	5.692e-6
2.540e-1	5.722e-6
2.550e-1	5.600e-6
2.560e-1	5.692e-6
2.570e-1	5.692e-6
2.580e-1	5.570e-6
2.590e-1	5.600e-6
2.600e-1	5.570e-6
2.610e-1	5.600e-6
2.620e-1	5.539e-6
2.630e-1	5.539e-6
2.640e-1	5.539e-6
2.650e-1	5.539e-6
2.660e-1	5.539e-6
2.670e-1	5.478e-6
2.680e-1	5.509e-6
2.690e-1	5.509e-6
2.700e-1	5.509e-6
2.710e-1	5.509e-6
2.720e-1	5.478e-6
2.730e-1	5.509e-6
2.740e-1	5.509e-6
2.750e-1	5.448e-6
2.760e-1	5.478e-6
2.770e-1	5.478e-6
2.780e-1	5.509e-6
2.790e-1	5.448e-6
2.800e-1	5.478e-6
2.810e-1	5.386e-6
2.820e-1	5.386e-6
2.830e-1	5.448e-6
2.840e-1	5.448e-6
2.850e-1	5.417e-6
2.860e-1	5.417e-6
2.870e-1	5.386e-6
2.880e-1	5.417e-6
2.890e-1	5.478e-6
2.900e-1	5.356e-6
2.910e-1	5.356e-6
2.920e-1	5.325e-6
2.930e-1	5.417e-6
2.940e-1	5.356e-6
2.950e-1	5.295e-6
2.960e-1	5.356e-6
2.970e-1	5.234e-6
2.980e-1	5.264e-6
2.990e-1	5.173e-6
3.000e-1	5.203e-6
3.010e-1	5.264e-6
3.020e-1	5.173e-6
3.030e-1	5.234e-6
3.040e-1	5.264e-6
3.050e-1	5.173e-6
3.060e-1	5.142e-6
3.070e-1	5.112e-6
3.080e-1	5.142e-6
3.090e-1	5.112e-6
3.100e-1	5.173e-6
3.110e-1	5.051e-6
3.120e-1	5.081e-6
3.130e-1	5.112e-6
3.140e-1	5.020e-6
3.150e-1	5.020e-6
3.160e-1	5.081e-6
3.170e-1	5.081e-6
3.180e-1	5.081e-6
3.190e-1	5.020e-6
3.200e-1	5.020e-6
3.210e-1	4.989e-6
3.220e-1	5.020e-6
3.230e-1	5.051e-6
3.240e-1	5.020e-6
3.250e-1	4.989e-6
3.260e-1	5.020e-6
3.270e-1	4.989e-6
3.280e-1	5.020e-6
3.290e-1	5.020e-6
3.300e-1	5.020e-6
3.310e-1	5.020e-6
3.320e-1	5.020e-6
3.330e-1	4.989e-6
3.340e-1	4.989e-6
3.350e-1	4.959e-6
3.360e-1	5.020e-6
3.370e-1	4.959e-6
3.380e-1	4.989e-6
3.390e-1	4.989e-6
3.400e-1	4.928e-6
3.410e-1	4.959e-6
3.420e-1	5.020e-6
3.430e-1	4.898e-6
3.440e-1	4.867e-6
3.450e-1	4.898e-6
3.460e-1	4.928e-6
3.470e-1	4.898e-6
3.480e-1	4.806e-6
3.490e-1	4.715e-6
3.500e-1	4.837e-6
3.510e-1	4.898e-6
3.520e-1	4.867e-6
3.530e-1	4.928e-6
3.540e-1	4.745e-6
3.550e-1	4.653e-6
3.560e-1	4.776e-6
3.570e-1	4.684e-6
3.580e-1	4.806e-6
3.590e-1	4.715e-6
3.600e-1	4.653e-6
3.610e-1	4.623e-6
3.620e-1	4.745e-6
3.630e-1	4.684e-6
3.640e-1	4.623e-6
3.650e-1	4.623e-6
3.660e-1	4.653e-6
3.670e-1	4.715e-6
3.680e-1	4.592e-6
3.690e-1	4.531e-6
3.700e-1	4.562e-6
3.710e-1	4.562e-6
3.720e-1	4.623e-6
3.730e-1	4.531e-6
3.740e-1	4.562e-6
3.750e-1	4.501e-6
3.760e-1	4.531e-6
3.770e-1	4.531e-6
3.780e-1	4.592e-6
3.790e-1	4.531e-6
3.800e-1	4.562e-6
3.810e-1	4.531e-6
3.820e-1	4.531e-6
3.830e-1	4.531e-6
3.840e-1	4.531e-6
3.850e-1	4.501e-6
3.860e-1	4.531e-6
3.870e-1	4.531e-6
3.880e-1	4.531e-6
3.890e-1	4.531e-6
3.900e-1	4.531e-6
3.910e-1	4.531e-6
3.920e-1	4.531e-6
3.930e-1	4.501e-6
3.940e-1	4.531e-6
3.950e-1	4.531e-6
3.960e-1	4.531e-6
3.970e-1	4.531e-6
3.980e-1	4.531e-6
3.990e-1	4.531e-6
4.000e-1	4.531e-6
4.010e-1	4.531e-6
4.020e-1	4.531e-6
4.030e-1	4.531e-6
4.040e-1	4.531e-6
4.050e-1	4.470e-6
4.060e-1	4.531e-6
4.070e-1	4.531e-6
4.080e-1	4.501e-6
4.090e-1	4.501e-6
4.100e-1	4.501e-6
4.110e-1	4.501e-6
4.120e-1	4.531e-6
4.130e-1	4.531e-6
4.140e-1	4.470e-6
4.150e-1	4.348e-6
4.160e-1	4.470e-6
4.170e-1	4.440e-6
4.180e-1	4.440e-6
4.190e-1	4.379e-6
4.200e-1	4.501e-6
4.210e-1	4.440e-6
4.220e-1	4.409e-6
4.230e-1	4.409e-6
4.240e-1	4.379e-6
4.250e-1	4.409e-6
4.260e-1	4.470e-6
4.270e-1	4.379e-6
4.280e-1	4.318e-6
4.290e-1	4.379e-6
4.300e-1	4.348e-6
4.310e-1	4.379e-6
4.320e-1	4.195e-6
4.330e-1	4.318e-6
4.340e-1	4.287e-6
4.350e-1	4.287e-6
4.360e-1	4.195e-6
4.370e-1	4.165e-6
4.380e-1	4.134e-6
4.390e-1	4.195e-6
4.400e-1	4.287e-6
4.410e-1	4.165e-6
4.420e-1	4.256e-6
4.430e-1	4.134e-6
4.440e-1	4.134e-6
4.450e-1	4.165e-6
4.460e-1	4.195e-6
4.470e-1	4.287e-6
4.480e-1	4.134e-6
4.490e-1	4.043e-6
4.500e-1	4.073e-6
4.510e-1	4.165e-6
4.520e-1	4.073e-6
4.530e-1	4.104e-6
4.540e-1	4.104e-6
4.550e-1	4.073e-6
4.560e-1	4.073e-6
4.570e-1	4.165e-6
4.580e-1	4.073e-6
4.590e-1	4.073e-6
4.600e-1	4.104e-6
4.610e-1	4.043e-6
4.620e-1	4.073e-6
4.630e-1	4.073e-6
4.640e-1	4.073e-6
4.650e-1	4.043e-6
4.660e-1	4.043e-6
4.670e-1	4.104e-6
4.680e-1	4.043e-6
4.690e-1	4.043e-6
4.700e-1	4.073e-6
4.710e-1	4.043e-6
4.720e-1	4.043e-6
4.730e-1	4.012e-6
4.740e-1	4.043e-6
4.750e-1	4.043e-6
4.760e-1	4.043e-6
4.770e-1	4.043e-6
4.780e-1	4.073e-6
4.790e-1	4.043e-6
4.800e-1	4.043e-6
4.810e-1	4.043e-6
4.820e-1	4.043e-6
4.830e-1	4.012e-6
4.840e-1	4.043e-6
4.850e-1	4.012e-6
4.860e-1	4.043e-6
4.870e-1	4.043e-6
4.880e-1	4.043e-6
4.890e-1	4.043e-6
4.900e-1	4.043e-6
4.910e-1	4.043e-6
4.920e-1	4.043e-6
4.930e-1	4.043e-6
4.940e-1	3.982e-6
4.950e-1	4.043e-6
4.960e-1	4.043e-6
4.970e-1	4.043e-6
4.980e-1	4.043e-6
4.990e-1	4.043e-6
5.000e-1	4.012e-6
5.010e-1	4.043e-6
5.020e-1	3.982e-6
5.030e-1	4.012e-6
5.040e-1	4.012e-6
5.050e-1	4.043e-6
5.060e-1	4.012e-6
5.070e-1	4.012e-6
5.080e-1	4.012e-6
5.090e-1	3.982e-6
5.100e-1	4.043e-6
5.110e-1	4.012e-6
5.120e-1	4.043e-6
5.130e-1	4.012e-6
5.140e-1	4.043e-6
5.150e-1	3.951e-6
5.160e-1	3.951e-6
5.170e-1	4.012e-6
5.180e-1	4.043e-6
5.190e-1	4.012e-6
5.200e-1	3.982e-6
5.210e-1	4.043e-6
5.220e-1	4.012e-6
5.230e-1	3.921e-6
5.240e-1	4.012e-6
5.250e-1	3.951e-6
5.260e-1	3.982e-6
5.270e-1	4.012e-6
5.280e-1	3.951e-6
5.290e-1	4.012e-6
5.300e-1	4.012e-6
5.310e-1	3.982e-6
5.320e-1	3.921e-6
5.330e-1	3.859e-6
5.340e-1	3.982e-6
5.350e-1	4.012e-6
5.360e-1	3.951e-6
5.370e-1	3.921e-6
5.380e-1	3.890e-6
5.390e-1	3.921e-6
5.400e-1	4.012e-6
5.410e-1	4.012e-6
5.420e-1	3.829e-6
5.430e-1	3.859e-6
5.440e-1	4.012e-6
5.450e-1	3.921e-6
5.460e-1	3.859e-6
5.470e-1	3.829e-6
5.480e-1	3.737e-6
5.490e-1	3.737e-6
5.500e-1	3.676e-6
5.510e-1	3.859e-6
5.520e-1	3.890e-6
5.530e-1	3.768e-6
5.540e-1	3.737e-6
5.550e-1	3.676e-6
5.560e-1	3.798e-6
5.570e-1	3.859e-6
5.580e-1	3.707e-6
5.590e-1	3.768e-6
5.600e-1	3.768e-6
5.610e-1	3.737e-6
5.620e-1	3.768e-6
5.630e-1	3.676e-6
5.640e-1	3.707e-6
5.650e-1	3.676e-6
5.660e-1	3.707e-6
5.670e-1	3.768e-6
5.680e-1	3.585e-6
5.690e-1	3.707e-6
5.700e-1	3.676e-6
5.710e-1	3.585e-6
5.720e-1	3.646e-6
5.730e-1	3.798e-6
5.740e-1	3.798e-6
5.750e-1	3.737e-6
5.760e-1	3.676e-6
5.770e-1	3.615e-6
5.780e-1	3.646e-6
5.790e-1	3.707e-6
5.800e-1	3.615e-6
5.810e-1	3.676e-6
5.820e-1	3.554e-6
5.830e-1	3.646e-6
5.840e-1	3.707e-6
5.850e-1	3.585e-6
5.860e-1	3.585e-6
5.870e-1	3.615e-6
5.880e-1	3.646e-6
5.890e-1	3.646e-6
5.900e-1	3.707e-6
5.910e-1	3.676e-6
5.920e-1	3.707e-6
5.930e-1	3.585e-6
5.940e-1	3.585e-6
5.950e-1	3.615e-6
5.960e-1	3.554e-6
5.970e-1	3.615e-6
5.980e-1	3.615e-6
5.990e-1	3.615e-6
6.000e-1	3.615e-6
6.010e-1	3.554e-6
6.020e-1	3.554e-6
6.030e-1	3.585e-6
6.040e-1	3.585e-6
6.050e-1	3.585e-6
6.060e-1	3.554e-6
6.070e-1	3.646e-6
6.080e-1	3.646e-6
6.090e-1	3.585e-6
6.100e-1	3.585e-6
6.110e-1	3.585e-6
6.120e-1	3.585e-6
6.130e-1	3.554e-6
6.140e-1	3.585e-6
6.150e-1	3.554e-6
6.160e-1	3.554e-6
6.170e-1	3.554e-6
6.180e-1	3.554e-6
6.190e-1	3.554e-6
6.200e-1	3.585e-6
6.210e-1	3.554e-6
6.220e-1	3.554e-6
6.230e-1	3.554e-6
6.240e-1	3.585e-6
6.250e-1	3.554e-6
6.260e-1	3.554e-6
6.270e-1	3.554e-6
6.280e-1	3.554e-6
6.290e-1	3.585e-6
6.300e-1	3.585e-6
6.310e-1	3.554e-6
6.320e-1	3.554e-6
6.330e-1	3.554e-6
6.340e-1	3.554e-6
6.350e-1	3.554e-6
6.360e-1	3.585e-6
6.370e-1	3.554e-6
6.380e-1	3.554e-6
6.390e-1	3.554e-6
6.400e-1	3.554e-6
6.410e-1	3.585e-6
6.420e-1	3.554e-6
6.430e-1	3.554e-6
6.440e-1	3.554e-6
6.450e-1	3.554e-6
6.460e-1	3.554e-6
6.470e-1	3.554e-6
6.480e-1	3.585e-6
6.490e-1	3.554e-6
6.500e-1	3.554e-6
6.510e-1	3.554e-6
6.520e-1	3.554e-6
6.530e-1	3.524e-6
6.540e-1	3.524e-6
6.550e-1	3.554e-6
6.560e-1	3.585e-6
6.570e-1	3.524e-6
6.580e-1	3.554e-6
6.590e-1	3.554e-6
6.600e-1	3.585e-6
6.610e-1	3.554e-6
6.620e-1	3.554e-6
6.630e-1	3.524e-6
6.640e-1	3.554e-6
6.650e-1	3.524e-6
6.660e-1	3.554e-6
6.670e-1	3.524e-6
6.680e-1	3.554e-6
6.690e-1	3.554e-6
6.700e-1	3.554e-6
6.710e-1	3.554e-6
6.720e-1	3.554e-6
6.730e-1	3.524e-6
6.740e-1	3.554e-6
6.750e-1	3.554e-6
6.760e-1	3.554e-6
6.770e-1	3.524e-6
6.780e-1	3.524e-6
6.790e-1	3.524e-6
6.800e-1	3.554e-6
6.810e-1	3.554e-6
6.820e-1	3.554e-6
6.830e-1	3.524e-6
6.840e-1	3.524e-6
6.850e-1	3.493e-6
6.860e-1	3.554e-6
6.870e-1	3.524e-6
6.880e-1	3.554e-6
6.890e-1	3.554e-6
6.900e-1	3.524e-6
6.910e-1	3.524e-6
6.920e-1	3.524e-6
6.930e-1	3.524e-6
6.940e-1	3.524e-6
6.950e-1	3.554e-6
6.960e-1	3.524e-6
6.970e-1	3.524e-6
6.980e-1	3.554e-6
6.990e-1	3.524e-6
7.000e-1	3.524e-6
7.010e-1	3.524e-6
7.020e-1	3.554e-6
7.030e-1	3.524e-6
7.040e-1	3.554e-6
7.050e-1	3.554e-6
7.060e-1	3.524e-6
7.070e-1	3.524e-6
7.080e-1	3.524e-6
7.090e-1	3.554e-6
7.100e-1	3.524e-6
7.110e-1	3.554e-6
7.120e-1	3.554e-6
7.130e-1	3.462e-6
7.140e-1	3.554e-6
7.150e-1	3.493e-6
7.160e-1	3.493e-6
7.170e-1	3.493e-6
7.180e-1	3.524e-6
7.190e-1	3.524e-6
7.200e-1	3.524e-6
7.210e-1	3.493e-6
7.220e-1	3.524e-6
7.230e-1	3.432e-6
7.240e-1	3.462e-6
7.250e-1	3.524e-6
7.260e-1	3.524e-6
7.270e-1	3.462e-6
7.280e-1	3.554e-6
7.290e-1	3.462e-6
7.300e-1	3.554e-6
7.310e-1	3.462e-6
7.320e-1	3.279e-6
7.330e-1	3.493e-6
7.340e-1	3.524e-6
7.350e-1	3.524e-6
7.360e-1	3.493e-6
7.370e-1	3.371e-6
7.380e-1	3.462e-6
7.390e-1	3.554e-6
7.400e-1	3.462e-6
7.410e-1	3.401e-6
7.420e-1	3.554e-6
7.430e-1	3.493e-6
7.440e-1	3.432e-6
7.450e-1	3.401e-6
7.460e-1	3.401e-6
7.470e-1	3.462e-6
7.480e-1	3.432e-6
7.490e-1	3.462e-6
7.500e-1	3.462e-6
7.510e-1	3.401e-6
7.520e-1	3.462e-6
7.530e-1	3.371e-6
7.540e-1	3.432e-6
7.550e-1	3.310e-6
7.560e-1	3.432e-6
7.570e-1	3.432e-6
7.580e-1	3.432e-6
7.590e-1	3.371e-6
7.600e-1	3.340e-6
7.610e-1	3.401e-6
7.620e-1	3.401e-6
7.630e-1	3.432e-6
7.640e-1	3.371e-6
7.650e-1	3.249e-6
7.660e-1	3.310e-6
7.670e-1	3.249e-6
7.680e-1	3.340e-6
7.690e-1	3.493e-6
7.700e-1	3.340e-6
7.710e-1	3.279e-6
7.720e-1	3.310e-6
7.730e-1	3.310e-6
7.740e-1	3.432e-6
7.750e-1	3.340e-6
7.760e-1	3.279e-6
7.770e-1	3.279e-6
7.780e-1	3.401e-6
7.790e-1	3.310e-6
7.800e-1	3.310e-6
7.810e-1	3.340e-6
7.820e-1	3.218e-6
7.830e-1	3.310e-6
7.840e-1	3.340e-6
7.850e-1	3.249e-6
7.860e-1	3.249e-6
7.870e-1	3.279e-6
7.880e-1	3.310e-6
7.890e-1	3.340e-6
7.900e-1	3.340e-6
7.910e-1	3.371e-6
7.920e-1	3.279e-6
7.930e-1	3.157e-6
7.940e-1	3.127e-6
7.950e-1	3.279e-6
7.960e-1	3.218e-6
7.970e-1	3.249e-6
7.980e-1	3.157e-6
7.990e-1	3.249e-6
8.000e-1	3.310e-6
8.010e-1	3.279e-6
8.020e-1	3.279e-6
8.030e-1	3.188e-6
8.040e-1	3.218e-6
8.050e-1	3.218e-6
8.060e-1	3.218e-6
8.070e-1	3.340e-6
8.080e-1	3.340e-6
8.090e-1	3.218e-6
8.100e-1	3.249e-6
8.110e-1	3.279e-6
8.120e-1	3.249e-6
8.130e-1	3.218e-6
8.140e-1	3.249e-6
8.150e-1	3.127e-6
8.160e-1	3.218e-6
8.170e-1	3.249e-6
8.180e-1	3.157e-6
8.190e-1	3.218e-6
8.200e-1	3.218e-6
8.210e-1	3.249e-6
8.220e-1	3.188e-6
8.230e-1	3.218e-6
8.240e-1	3.188e-6
8.250e-1	3.188e-6
8.260e-1	3.218e-6
8.270e-1	3.157e-6
8.280e-1	3.127e-6
8.290e-1	3.157e-6
8.300e-1	3.218e-6
8.310e-1	3.188e-6
8.320e-1	3.127e-6
8.330e-1	3.218e-6
8.340e-1	3.157e-6
8.350e-1	3.218e-6
8.360e-1	3.157e-6
8.370e-1	3.096e-6
8.380e-1	3.157e-6
8.390e-1	3.127e-6
8.400e-1	3.127e-6
8.410e-1	3.127e-6
8.420e-1	3.127e-6
8.430e-1	3.127e-6
8.440e-1	3.127e-6
8.450e-1	3.127e-6
8.460e-1	3.188e-6
8.470e-1	3.218e-6
8.480e-1	3.127e-6
8.490e-1	3.065e-6
8.500e-1	3.065e-6
8.510e-1	3.127e-6
8.520e-1	3.127e-6
8.530e-1	3.096e-6
8.540e-1	3.157e-6
8.550e-1	3.035e-6
8.560e-1	3.127e-6
8.570e-1	3.096e-6
8.580e-1	3.065e-6
8.590e-1	3.096e-6
8.600e-1	3.096e-6
8.610e-1	3.127e-6
8.620e-1	3.096e-6
8.630e-1	3.096e-6
8.640e-1	3.157e-6
8.650e-1	3.035e-6
8.660e-1	3.096e-6
8.670e-1	3.127e-6
8.680e-1	3.065e-6
8.690e-1	3.127e-6
8.700e-1	3.188e-6
8.710e-1	3.065e-6
8.720e-1	3.127e-6
8.730e-1	3.127e-6
8.740e-1	3.065e-6
8.750e-1	3.096e-6
8.760e-1	3.096e-6
8.770e-1	3.157e-6
8.780e-1	3.065e-6
8.790e-1	3.127e-6
8.800e-1	3.157e-6
8.810e-1	3.096e-6
8.820e-1	3.065e-6
8.830e-1	3.065e-6
8.840e-1	3.065e-6
8.850e-1	3.096e-6
8.860e-1	3.065e-6
8.870e-1	3.096e-6
8.880e-1	3.065e-6
8.890e-1	3.065e-6
8.900e-1	3.127e-6
8.910e-1	3.065e-6
8.920e-1	3.065e-6
8.930e-1	3.096e-6
8.940e-1	3.065e-6
8.950e-1	3.035e-6
8.960e-1	3.127e-6
8.970e-1	3.096e-6
8.980e-1	3.065e-6
8.990e-1	3.035e-6
9.000e-1	3.065e-6
9.010e-1	3.096e-6
9.020e-1	3.096e-6
9.030e-1	3.065e-6
9.040e-1	3.065e-6
9.050e-1	3.065e-6
9.060e-1	3.127e-6
9.070e-1	3.065e-6
9.080e-1	3.096e-6
9.090e-1	3.065e-6
9.100e-1	3.065e-6
9.110e-1	3.065e-6
9.120e-1	3.065e-6
9.130e-1	3.065e-6
9.140e-1	3.096e-6
9.150e-1	3.065e-6
9.160e-1	3.127e-6
9.170e-1	3.065e-6
9.180e-1	3.065e-6
9.190e-1	3.065e-6
9.200e-1	3.065e-6
9.210e-1	3.065e-6
9.220e-1	3.065e-6
9.230e-1	3.065e-6
9.240e-1	3.096e-6
9.250e-1	3.065e-6
9.260e-1	3.127e-6
9.270e-1	3.065e-6
9.280e-1	3.065e-6
9.290e-1	3.127e-6
9.300e-1	3.065e-6
9.310e-1	3.065e-6
9.320e-1	3.065e-6
9.330e-1	3.065e-6
9.340e-1	3.096e-6
9.350e-1	3.065e-6
9.360e-1	3.065e-6
9.370e-1	3.065e-6
9.380e-1	3.065e-6
9.390e-1	3.065e-6
9.400e-1	3.065e-6
9.410e-1	3.096e-6
9.420e-1	3.065e-6
9.430e-1	3.065e-6
9.440e-1	3.065e-6
9.450e-1	3.065e-6
9.460e-1	3.065e-6
9.470e-1	3.065e-6
9.480e-1	3.065e-6
9.490e-1	3.065e-6
9.500e-1	3.065e-6
9.510e-1	3.065e-6
9.520e-1	3.065e-6
9.530e-1	3.065e-6
9.540e-1	3.096e-6
9.550e-1	3.035e-6
9.560e-1	3.065e-6
9.570e-1	3.065e-6
9.580e-1	3.096e-6
9.590e-1	3.035e-6
9.600e-1	3.065e-6
9.610e-1	3.065e-6
9.620e-1	3.096e-6
9.630e-1	3.065e-6
9.640e-1	3.065e-6
9.650e-1	3.065e-6
9.660e-1	3.065e-6
9.670e-1	3.065e-6
9.680e-1	3.065e-6
9.690e-1	3.065e-6
9.700e-1	3.065e-6
9.710e-1	3.065e-6
9.720e-1	3.065e-6
9.730e-1	3.065e-6
9.740e-1	3.065e-6
9.750e-1	3.065e-6
9.760e-1	3.065e-6
9.770e-1	3.065e-6
9.780e-1	3.035e-6
9.790e-1	3.035e-6
9.800e-1	3.096e-6
9.810e-1	3.065e-6
9.820e-1	3.065e-6
9.830e-1	3.035e-6
9.840e-1	3.035e-6
9.850e-1	3.065e-6
9.860e-1	3.065e-6
9.870e-1	3.065e-6
9.880e-1	3.065e-6
9.890e-1	3.065e-6
9.900e-1	3.065e-6
9.910e-1	3.065e-6
9.920e-1	3.065e-6
9.930e-1	3.065e-6
9.940e-1	3.065e-6
9.950e-1	3.065e-6
9.960e-1	3.065e-6
9.970e-1	3.065e-6
9.980e-1	3.035e-6
9.990e-1	3.035e-6
1.000e+0	3.035e-6
1.001e+0	3.035e-6
1.002e+0	3.065e-6
1.003e+0	3.065e-6
1.004e+0	3.065e-6
1.005e+0	3.065e-6
1.006e+0	3.096e-6
1.007e+0	3.065e-6
1.008e+0	3.065e-6
1.009e+0	3.035e-6
1.010e+0	3.035e-6
1.011e+0	3.065e-6
1.012e+0	3.065e-6
1.013e+0	3.035e-6
1.014e+0	3.065e-6
1.015e+0	3.035e-6
1.016e+0	3.035e-6
1.017e+0	3.035e-6
1.018e+0	3.065e-6
1.019e+0	3.065e-6
1.020e+0	3.065e-6
1.021e+0	3.004e-6
1.022e+0	2.943e-6
1.023e+0	3.065e-6
1.024e+0	3.065e-6
1.025e+0	3.065e-6
1.026e+0	3.065e-6
1.027e+0	3.065e-6
1.028e+0	3.065e-6
1.029e+0	3.065e-6
1.030e+0	3.065e-6
1.031e+0	3.065e-6
1.032e+0	3.065e-6
1.033e+0	3.065e-6
1.034e+0	3.065e-6
1.035e+0	3.035e-6
1.036e+0	3.065e-6
1.037e+0	2.974e-6
1.038e+0	3.035e-6
1.039e+0	3.035e-6
1.040e+0	3.065e-6
1.041e+0	3.035e-6
1.042e+0	3.035e-6
1.043e+0	3.065e-6
1.044e+0	3.035e-6
1.045e+0	3.065e-6
1.046e+0	3.035e-6
1.047e+0	3.035e-6
1.048e+0	3.035e-6
1.049e+0	3.004e-6
1.050e+0	3.035e-6
1.051e+0	3.065e-6
1.052e+0	3.065e-6
1.053e+0	3.035e-6
1.054e+0	3.004e-6
1.055e+0	3.065e-6
1.056e+0	3.035e-6
1.057e+0	3.035e-6
1.058e+0	3.035e-6
1.059e+0	3.035e-6
1.060e+0	3.065e-6
1.061e+0	3.035e-6
1.062e+0	3.065e-6
1.063e+0	3.004e-6
1.064e+0	3.035e-6
1.065e+0	3.035e-6
1.066e+0	3.035e-6
1.067e+0	2.974e-6
1.068e+0	3.065e-6
1.069e+0	3.035e-6
1.070e+0	3.035e-6
1.071e+0	2.974e-6
1.072e+0	3.035e-6
1.073e+0	2.913e-6
1.074e+0	3.065e-6
1.075e+0	3.035e-6
1.076e+0	3.035e-6
1.077e+0	3.065e-6
1.078e+0	3.004e-6
1.079e+0	3.065e-6
1.080e+0	3.004e-6
1.081e+0	3.004e-6
1.082e+0	3.035e-6
1.083e+0	3.035e-6
1.084e+0	3.035e-6
1.085e+0	2.974e-6
1.086e+0	3.065e-6
1.087e+0	3.004e-6
1.088e+0	3.035e-6
1.089e+0	3.035e-6
1.090e+0	3.035e-6
1.091e+0	2.943e-6
1.092e+0	3.035e-6
1.093e+0	3.035e-6
1.094e+0	3.035e-6
1.095e+0	3.004e-6
1.096e+0	3.035e-6
1.097e+0	2.974e-6
1.098e+0	2.974e-6
1.099e+0	3.004e-6
1.100e+0	3.004e-6
1.101e+0	2.974e-6
1.102e+0	2.882e-6
1.103e+0	2.974e-6
1.104e+0	2.913e-6
1.105e+0	3.035e-6
1.106e+0	2.974e-6
1.107e+0	3.035e-6
1.108e+0	2.974e-6
1.109e+0	3.004e-6
1.110e+0	2.974e-6
1.111e+0	3.004e-6
1.112e+0	3.004e-6
1.113e+0	2.974e-6
1.114e+0	2.974e-6
1.115e+0	2.943e-6
1.116e+0	2.913e-6
1.117e+0	3.004e-6
1.118e+0	3.004e-6
1.119e+0	2.913e-6
1.120e+0	3.035e-6
1.121e+0	3.004e-6
1.122e+0	3.004e-6
1.123e+0	2.943e-6
1.124e+0	2.943e-6
1.125e+0	2.974e-6
1.126e+0	2.974e-6
1.127e+0	2.913e-6
1.128e+0	2.913e-6
1.129e+0	3.035e-6
1.130e+0	2.974e-6
1.131e+0	2.943e-6
1.132e+0	2.852e-6
1.133e+0	3.004e-6
1.134e+0	2.943e-6
1.135e+0	3.035e-6
1.136e+0	3.035e-6
1.137e+0	2.913e-6
1.138e+0	3.035e-6
1.139e+0	2.943e-6
1.140e+0	3.065e-6
1.141e+0	2.974e-6
1.142e+0	2.943e-6
1.143e+0	3.035e-6
1.144e+0	2.882e-6
1.145e+0	3.004e-6
1.146e+0	3.035e-6
1.147e+0	2.882e-6
1.148e+0	2.943e-6
1.149e+0	2.852e-6
1.150e+0	2.943e-6
1.151e+0	2.882e-6
1.152e+0	3.004e-6
1.153e+0	2.913e-6
1.154e+0	2.974e-6
1.155e+0	2.974e-6
1.156e+0	2.882e-6
1.157e+0	2.943e-6
1.158e+0	2.882e-6
1.159e+0	2.943e-6
1.160e+0	2.974e-6
1.161e+0	2.882e-6
1.162e+0	2.913e-6
1.163e+0	2.943e-6
1.164e+0	2.943e-6
1.165e+0	3.035e-6
1.166e+0	2.913e-6
1.167e+0	2.974e-6
1.168e+0	3.004e-6
1.169e+0	2.913e-6
1.170e+0	2.821e-6
1.171e+0	2.974e-6
1.172e+0	2.882e-6
1.173e+0	2.974e-6
1.174e+0	2.943e-6
1.175e+0	2.882e-6
1.176e+0	2.974e-6
1.177e+0	2.913e-6
1.178e+0	2.943e-6
1.179e+0	2.974e-6
1.180e+0	3.004e-6
1.181e+0	2.943e-6
1.182e+0	2.882e-6
1.183e+0	2.974e-6
1.184e+0	2.882e-6
1.185e+0	2.821e-6
1.186e+0	2.974e-6
1.187e+0	2.913e-6
1.188e+0	2.882e-6
1.189e+0	2.882e-6
1.190e+0	2.943e-6
1.191e+0	2.943e-6
1.192e+0	2.882e-6
1.193e+0	2.821e-6
1.194e+0	2.882e-6
1.195e+0	2.852e-6
1.196e+0	2.913e-6
1.197e+0	2.913e-6
1.198e+0	2.852e-6
1.199e+0	2.821e-6
1.200e+0	2.852e-6
1.201e+0	2.913e-6
1.202e+0	2.821e-6
1.203e+0	2.882e-6
1.204e+0	2.852e-6
1.205e+0	2.852e-6
1.206e+0	2.760e-6
1.207e+0	2.974e-6
1.208e+0	2.974e-6
1.209e+0	2.668e-6
1.210e+0	2.913e-6
1.211e+0	2.760e-6
1.212e+0	2.852e-6
1.213e+0	2.943e-6
1.214e+0	2.913e-6
1.215e+0	2.852e-6
1.216e+0	2.791e-6
1.217e+0	2.913e-6
1.218e+0	2.882e-6
1.219e+0	2.882e-6
1.220e+0	2.913e-6
1.221e+0	2.760e-6
1.222e+0	2.760e-6
1.223e+0	2.852e-6
1.224e+0	3.035e-6
1.225e+0	2.791e-6
1.226e+0	2.943e-6
1.227e+0	2.821e-6
1.228e+0	2.852e-6
1.229e+0	2.943e-6
1.230e+0	2.852e-6
1.231e+0	2.821e-6
1.232e+0	2.791e-6
1.233e+0	2.913e-6
1.234e+0	2.882e-6
1.235e+0	2.791e-6
1.236e+0	2.760e-6
1.237e+0	2.791e-6
1.238e+0	2.791e-6
1.239e+0	2.760e-6
1.240e+0	2.699e-6
1.241e+0	2.760e-6
1.242e+0	2.791e-6
1.243e+0	2.730e-6
1.244e+0	2.821e-6
1.245e+0	2.882e-6
1.246e+0	2.821e-6
1.247e+0	2.852e-6
1.248e+0	2.821e-6
1.249e+0	2.760e-6
1.250e+0	2.882e-6
1.251e+0	2.791e-6
1.252e+0	2.699e-6
1.253e+0	2.699e-6
1.254e+0	2.821e-6
1.255e+0	2.821e-6
1.256e+0	2.699e-6
1.257e+0	2.882e-6
1.258e+0	2.852e-6
1.259e+0	2.852e-6
1.260e+0	2.791e-6
1.261e+0	2.882e-6
1.262e+0	2.821e-6
1.263e+0	2.791e-6
1.264e+0	2.760e-6
1.265e+0	2.699e-6
1.266e+0	2.760e-6
1.267e+0	2.882e-6
1.268e+0	2.821e-6
1.269e+0	2.668e-6
1.270e+0	2.699e-6
1.271e+0	2.607e-6
1.272e+0	2.760e-6
1.273e+0	2.821e-6
1.274e+0	2.760e-6
1.275e+0	2.730e-6
1.276e+0	2.791e-6
1.277e+0	2.730e-6
1.278e+0	2.821e-6
1.279e+0	2.791e-6
1.280e+0	2.821e-6
1.281e+0	2.821e-6
1.282e+0	2.699e-6
1.283e+0	2.760e-6
1.284e+0	2.730e-6
1.285e+0	2.852e-6
1.286e+0	2.730e-6
1.287e+0	2.638e-6
1.288e+0	2.668e-6
1.289e+0	2.821e-6
1.290e+0	2.791e-6
1.291e+0	2.699e-6
1.292e+0	2.730e-6
1.293e+0	2.760e-6
1.294e+0	2.699e-6
1.295e+0	2.760e-6
1.296e+0	2.791e-6
1.297e+0	2.821e-6
1.298e+0	2.699e-6
1.299e+0	2.638e-6
1.300e+0	2.821e-6
1.301e+0	2.668e-6
1.302e+0	2.730e-6
1.303e+0	2.730e-6
1.304e+0	2.699e-6
1.305e+0	2.730e-6
1.306e+0	2.730e-6
1.307e+0	2.760e-6
1.308e+0	2.668e-6
1.309e+0	2.668e-6
1.310e+0	2.668e-6
1.311e+0	2.699e-6
1.312e+0	2.668e-6
1.313e+0	2.699e-6
1.314e+0	2.821e-6
1.315e+0	2.668e-6
1.316e+0	2.760e-6
1.317e+0	2.668e-6
1.318e+0	2.760e-6
1.319e+0	2.760e-6
1.320e+0	2.638e-6
1.321e+0	2.668e-6
1.322e+0	2.607e-6
1.323e+0	2.730e-6
1.324e+0	2.699e-6
1.325e+0	2.699e-6
1.326e+0	2.791e-6
1.327e+0	2.699e-6
1.328e+0	2.730e-6
1.329e+0	2.730e-6
1.330e+0	2.730e-6
1.331e+0	2.638e-6
1.332e+0	2.638e-6
1.333e+0	2.699e-6
1.334e+0	2.668e-6
1.335e+0	2.791e-6
1.336e+0	2.699e-6
1.337e+0	2.699e-6
1.338e+0	2.638e-6
1.339e+0	2.699e-6
1.340e+0	2.821e-6
1.341e+0	2.638e-6
1.342e+0	2.668e-6
1.343e+0	2.607e-6
1.344e+0	2.668e-6
1.345e+0	2.699e-6
1.346e+0	2.668e-6
1.347e+0	2.730e-6
1.348e+0	2.668e-6
1.349e+0	2.607e-6
1.350e+0	2.638e-6
1.351e+0	2.577e-6
1.352e+0	2.638e-6
1.353e+0	2.699e-6
1.354e+0	2.668e-6
1.355e+0	2.668e-6
1.356e+0	2.760e-6
1.357e+0	2.699e-6
1.358e+0	2.730e-6
1.359e+0	2.607e-6
1.360e+0	2.699e-6
1.361e+0	2.668e-6
1.362e+0	2.668e-6
1.363e+0	2.607e-6
1.364e+0	2.668e-6
1.365e+0	2.577e-6
1.366e+0	2.668e-6
1.367e+0	2.699e-6
1.368e+0	2.607e-6
1.369e+0	2.730e-6
1.370e+0	2.668e-6
1.371e+0	2.577e-6
1.372e+0	2.577e-6
1.373e+0	2.668e-6
1.374e+0	2.760e-6
1.375e+0	2.638e-6
1.376e+0	2.607e-6
1.377e+0	2.668e-6
1.378e+0	2.607e-6
1.379e+0	2.668e-6
1.380e+0	2.607e-6
1.381e+0	2.730e-6
1.382e+0	2.638e-6
1.383e+0	2.668e-6
1.384e+0	2.668e-6
1.385e+0	2.668e-6
1.386e+0	2.607e-6
1.387e+0	2.577e-6
1.388e+0	2.607e-6
1.389e+0	2.607e-6
1.390e+0	2.607e-6
1.391e+0	2.668e-6
1.392e+0	2.638e-6
1.393e+0	2.607e-6
1.394e+0	2.577e-6
1.395e+0	2.577e-6
1.396e+0	2.607e-6
1.397e+0	2.699e-6
1.398e+0	2.607e-6
1.399e+0	2.546e-6
1.400e+0	2.638e-6
1.401e+0	2.668e-6
1.402e+0	2.638e-6
1.403e+0	2.607e-6
1.404e+0	2.577e-6
1.405e+0	2.638e-6
1.406e+0	2.668e-6
1.407e+0	2.607e-6
1.408e+0	2.607e-6
1.409e+0	2.760e-6
1.410e+0	2.577e-6
1.411e+0	2.699e-6
1.412e+0	2.607e-6
1.413e+0	2.638e-6
1.414e+0	2.668e-6
1.415e+0	2.668e-6
1.416e+0	2.577e-6
1.417e+0	2.607e-6
1.418e+0	2.668e-6
1.419e+0	2.607e-6
1.420e+0	2.668e-6
1.421e+0	2.607e-6
1.422e+0	2.638e-6
1.423e+0	2.638e-6
1.424e+0	2.607e-6
1.425e+0	2.577e-6
1.426e+0	2.668e-6
1.427e+0	2.607e-6
1.428e+0	2.607e-6
1.429e+0	2.607e-6
1.430e+0	2.638e-6
1.431e+0	2.607e-6
1.432e+0	2.577e-6
1.433e+0	2.577e-6
1.434e+0	2.577e-6
1.435e+0	2.668e-6
1.436e+0	2.577e-6
1.437e+0	2.668e-6
1.438e+0	2.577e-6
1.439e+0	2.607e-6
1.440e+0	2.638e-6
1.441e+0	2.607e-6
1.442e+0	2.607e-6
1.443e+0	2.607e-6
1.444e+0	2.577e-6
1.445e+0	2.577e-6
1.446e+0	2.607e-6
1.447e+0	2.607e-6
1.448e+0	2.577e-6
1.449e+0	2.577e-6
1.450e+0	2.638e-6
1.451e+0	2.638e-6
1.452e+0	2.577e-6
1.453e+0	2.607e-6
1.454e+0	2.577e-6
1.455e+0	2.607e-6
1.456e+0	2.607e-6
1.457e+0	2.668e-6
1.458e+0	2.638e-6
1.459e+0	2.607e-6
1.460e+0	2.577e-6
1.461e+0	2.577e-6
1.462e+0	2.577e-6
1.463e+0	2.577e-6
1.464e+0	2.607e-6
1.465e+0	2.577e-6
1.466e+0	2.577e-6
1.467e+0	2.607e-6
1.468e+0	2.577e-6
1.469e+0	2.577e-6
1.470e+0	2.607e-6
1.471e+0	2.577e-6
1.472e+0	2.607e-6
1.473e+0	2.577e-6
1.474e+0	2.577e-6
1.475e+0	2.577e-6
1.476e+0	2.607e-6
1.477e+0	2.607e-6
1.478e+0	2.607e-6
1.479e+0	2.607e-6
1.480e+0	2.668e-6
1.481e+0	2.607e-6
1.482e+0	2.577e-6
1.483e+0	2.607e-6
1.484e+0	2.607e-6
1.485e+0	2.699e-6
1.486e+0	2.577e-6
1.487e+0	2.577e-6
1.488e+0	2.577e-6
1.489e+0	2.577e-6
1.490e+0	2.638e-6
1.491e+0	2.577e-6
1.492e+0	2.577e-6
1.493e+0	2.577e-6
1.494e+0	2.577e-6
1.495e+0	2.577e-6
1.496e+0	2.607e-6
1.497e+0	2.607e-6
1.498e+0	2.577e-6
1.499e+0	2.577e-6
1.500e+0	2.577e-6
1.501e+0	2.607e-6
1.502e+0	2.577e-6
1.503e+0	2.607e-6
1.504e+0	2.577e-6
1.505e+0	2.577e-6
1.506e+0	2.577e-6
1.507e+0	2.577e-6
1.508e+0	2.577e-6
1.509e+0	2.607e-6
1.510e+0	2.577e-6
1.511e+0	2.577e-6
1.512e+0	2.607e-6
1.513e+0	2.577e-6
1.514e+0	2.577e-6
1.515e+0	2.577e-6
1.516e+0	2.668e-6
1.517e+0	2.577e-6
1.518e+0	2.577e-6
1.519e+0	2.577e-6
1.520e+0	2.607e-6
1.521e+0	2.577e-6
1.522e+0	2.577e-6
1.523e+0	2.577e-6
1.524e+0	2.577e-6
1.525e+0	2.607e-6
1.526e+0	2.577e-6
1.527e+0	2.577e-6
1.528e+0	2.607e-6
1.529e+0	2.577e-6
1.530e+0	2.577e-6
1.531e+0	2.577e-6
1.532e+0	2.577e-6
1.533e+0	2.577e-6
1.534e+0	2.577e-6
1.535e+0	2.577e-6
1.536e+0	2.577e-6
1.537e+0	2.607e-6
1.538e+0	2.577e-6
1.539e+0	2.577e-6
1.540e+0	2.577e-6
1.541e+0	2.607e-6
1.542e+0	2.577e-6
1.543e+0	2.577e-6
1.544e+0	2.577e-6
1.545e+0	2.577e-6
1.546e+0	2.577e-6
1.547e+0	2.668e-6
1.548e+0	2.577e-6
1.549e+0	2.577e-6
1.550e+0	2.577e-6
1.551e+0	2.577e-6
1.552e+0	2.577e-6
1.553e+0	2.577e-6
1.554e+0	2.577e-6
1.555e+0	2.607e-6
1.556e+0	2.577e-6
1.557e+0	2.607e-6
1.558e+0	2.577e-6
1.559e+0	2.577e-6
1.560e+0	2.607e-6
1.561e+0	2.546e-6
1.562e+0	2.577e-6
1.563e+0	2.577e-6
1.564e+0	2.577e-6
1.565e+0	2.577e-6
1.566e+0	2.577e-6
1.567e+0	2.577e-6
1.568e+0	2.577e-6
1.569e+0	2.577e-6
1.570e+0	2.577e-6
1.571e+0	2.577e-6
1.572e+0	2.577e-6
1.573e+0	2.577e-6
1.574e+0	2.577e-6
1.575e+0	2.577e-6
1.576e+0	2.577e-6
1.577e+0	2.577e-6
1.578e+0	2.577e-6
1.579e+0	2.607e-6
1.580e+0	2.577e-6
1.581e+0	2.577e-6
1.582e+0	2.577e-6
1.583e+0	2.577e-6
1.584e+0	2.577e-6
1.585e+0	2.577e-6
1.586e+0	2.607e-6
1.587e+0	2.577e-6
1.588e+0	2.577e-6
1.589e+0	2.638e-6
1.590e+0	2.607e-6
1.591e+0	2.577e-6
1.592e+0	2.577e-6
1.593e+0	2.577e-6
1.594e+0	2.577e-6
1.595e+0	2.577e-6
1.596e+0	2.577e-6
1.597e+0	2.607e-6
1.598e+0	2.577e-6
1.599e+0	2.577e-6
1.600e+0	2.577e-6
1.601e+0	2.577e-6
1.602e+0	2.577e-6
1.603e+0	2.577e-6
1.604e+0	2.577e-6
1.605e+0	2.577e-6
1.606e+0	2.577e-6
1.607e+0	2.577e-6
1.608e+0	2.607e-6
1.609e+0	2.546e-6
1.610e+0	2.577e-6
1.611e+0	2.577e-6
1.612e+0	2.577e-6
1.613e+0	2.577e-6
1.614e+0	2.577e-6
1.615e+0	2.546e-6
1.616e+0	2.577e-6
1.617e+0	2.607e-6
1.618e+0	2.577e-6
1.619e+0	2.577e-6
1.620e+0	2.577e-6
1.621e+0	2.577e-6
1.622e+0	2.577e-6
1.623e+0	2.577e-6
1.624e+0	2.577e-6
1.625e+0	2.577e-6
1.626e+0	2.577e-6
1.627e+0	2.577e-6
1.628e+0	2.607e-6
1.629e+0	2.577e-6
1.630e+0	2.577e-6
1.631e+0	2.546e-6
1.632e+0	2.577e-6
1.633e+0	2.577e-6
1.634e+0	2.577e-6
1.635e+0	2.577e-6
1.636e+0	2.577e-6
1.637e+0	2.577e-6
1.638e+0	2.577e-6
1.639e+0	2.577e-6
1.640e+0	2.577e-6
1.641e+0	2.577e-6
1.642e+0	2.577e-6
1.643e+0	2.577e-6
1.644e+0	2.577e-6
1.645e+0	2.546e-6
1.646e+0	2.577e-6
1.647e+0	2.577e-6
1.648e+0	2.577e-6
1.649e+0	2.577e-6
1.650e+0	2.577e-6
1.651e+0	2.577e-6
1.652e+0	2.577e-6
1.653e+0	2.577e-6
1.654e+0	2.577e-6
1.655e+0	2.577e-6
1.656e+0	2.577e-6
1.657e+0	2.577e-6
1.658e+0	2.577e-6
1.659e+0	2.577e-6
1.660e+0	2.577e-6
1.661e+0	2.577e-6
1.662e+0	2.577e-6
1.663e+0	2.577e-6
1.664e+0	2.577e-6
1.665e+0	2.577e-6
1.666e+0	2.577e-6
1.667e+0	2.577e-6
1.668e+0	2.577e-6
1.669e+0	2.607e-6
1.670e+0	2.577e-6
1.671e+0	2.577e-6
1.672e+0	2.577e-6
1.673e+0	2.577e-6
1.674e+0	2.577e-6
1.675e+0	2.546e-6
1.676e+0	2.577e-6
1.677e+0	2.577e-6
1.678e+0	2.577e-6
1.679e+0	2.577e-6
1.680e+0	2.577e-6
1.681e+0	2.546e-6
1.682e+0	2.546e-6
1.683e+0	2.546e-6
1.684e+0	2.577e-6
1.685e+0	2.546e-6
1.686e+0	2.577e-6
1.687e+0	2.577e-6
1.688e+0	2.577e-6
1.689e+0	2.546e-6
1.690e+0	2.577e-6
1.691e+0	2.546e-6
1.692e+0	2.577e-6
1.693e+0	2.577e-6
1.694e+0	2.577e-6
1.695e+0	2.546e-6
1.696e+0	2.577e-6
1.697e+0	2.577e-6
1.698e+0	2.577e-6
1.699e+0	2.546e-6
1.700e+0	2.607e-6
1.701e+0	2.577e-6
1.702e+0	2.577e-6
1.703e+0	2.577e-6
1.704e+0	2.577e-6
1.705e+0	2.546e-6
1.706e+0	2.577e-6
1.707e+0	2.577e-6
1.708e+0	2.577e-6
1.709e+0	2.546e-6
1.710e+0	2.577e-6
1.711e+0	2.607e-6
1.712e+0	2.577e-6
1.713e+0	2.546e-6
1.714e+0	2.577e-6
1.715e+0	2.577e-6
1.716e+0	2.577e-6
1.717e+0	2.546e-6
1.718e+0	2.577e-6
1.719e+0	2.577e-6
1.720e+0	2.577e-6
1.721e+0	2.577e-6
1.722e+0	2.577e-6
1.723e+0	2.546e-6
1.724e+0	2.577e-6
1.725e+0	2.577e-6
1.726e+0	2.577e-6
1.727e+0	2.546e-6
1.728e+0	2.577e-6
1.729e+0	2.546e-6
1.730e+0	2.577e-6
1.731e+0	2.577e-6
1.732e+0	2.577e-6
1.733e+0	2.546e-6
1.734e+0	2.577e-6
1.735e+0	2.546e-6
1.736e+0	2.577e-6
1.737e+0	2.546e-6
1.738e+0	2.577e-6
1.739e+0	2.546e-6
1.740e+0	2.577e-6
1.741e+0	2.546e-6
1.742e+0	2.577e-6
1.743e+0	2.577e-6
1.744e+0	2.577e-6
1.745e+0	2.577e-6
1.746e+0	2.577e-6
1.747e+0	2.577e-6
1.748e+0	2.577e-6
1.749e+0	2.516e-6
1.750e+0	2.577e-6
1.751e+0	2.577e-6
1.752e+0	2.577e-6
1.753e+0	2.577e-6
1.754e+0	2.546e-6
1.755e+0	2.516e-6
1.756e+0	2.546e-6
1.757e+0	2.577e-6
1.758e+0	2.577e-6
1.759e+0	2.546e-6
1.760e+0	2.607e-6
1.761e+0	2.577e-6
1.762e+0	2.577e-6
1.763e+0	2.546e-6
1.764e+0	2.577e-6
1.765e+0	2.577e-6
1.766e+0	2.577e-6
1.767e+0	2.516e-6
1.768e+0	2.577e-6
1.769e+0	2.577e-6
1.770e+0	2.577e-6
1.771e+0	2.577e-6
1.772e+0	2.577e-6
1.773e+0	2.546e-6
1.774e+0	2.577e-6
1.775e+0	2.546e-6
1.776e+0	2.577e-6
1.777e+0	2.577e-6
1.778e+0	2.577e-6
1.779e+0	2.577e-6
1.780e+0	2.577e-6
1.781e+0	2.546e-6
1.782e+0	2.577e-6
1.783e+0	2.546e-6
1.784e+0	2.577e-6
1.785e+0	2.546e-6
1.786e+0	2.577e-6
1.787e+0	2.546e-6
1.788e+0	2.577e-6
1.789e+0	2.577e-6
1.790e+0	2.546e-6
1.791e+0	2.546e-6
1.792e+0	2.577e-6
1.793e+0	2.516e-6
1.794e+0	2.577e-6
1.795e+0	2.546e-6
1.796e+0	2.577e-6
1.797e+0	2.577e-6
1.798e+0	2.577e-6
1.799e+0	2.546e-6
1.800e+0	2.577e-6
1.801e+0	2.546e-6
1.802e+0	2.577e-6
1.803e+0	2.485e-6
1.804e+0	2.577e-6
1.805e+0	2.546e-6
1.806e+0	2.577e-6
1.807e+0	2.546e-6
1.808e+0	2.577e-6
1.809e+0	2.577e-6
1.810e+0	2.577e-6
1.811e+0	2.546e-6
1.812e+0	2.546e-6
1.813e+0	2.577e-6
1.814e+0	2.577e-6
1.815e+0	2.485e-6
1.816e+0	2.577e-6
1.817e+0	2.546e-6
1.818e+0	2.516e-6
1.819e+0	2.546e-6
1.820e+0	2.577e-6
1.821e+0	2.577e-6
1.822e+0	2.577e-6
1.823e+0	2.577e-6
1.824e+0	2.577e-6
1.825e+0	2.546e-6
1.826e+0	2.546e-6
1.827e+0	2.546e-6
1.828e+0	2.516e-6
1.829e+0	2.516e-6
1.830e+0	2.577e-6
1.831e+0	2.546e-6
1.832e+0	2.577e-6
1.833e+0	2.546e-6
1.834e+0	2.577e-6
1.835e+0	2.577e-6
1.836e+0	2.577e-6
1.837e+0	2.546e-6
1.838e+0	2.546e-6
1.839e+0	2.546e-6
1.840e+0	2.546e-6
1.841e+0	2.546e-6
1.842e+0	2.577e-6
1.843e+0	2.546e-6
1.844e+0	2.546e-6
1.845e+0	2.485e-6
1.846e+0	2.577e-6
1.847e+0	2.546e-6
1.848e+0	2.546e-6
1.849e+0	2.577e-6
1.850e+0	2.577e-6
1.851e+0	2.516e-6
1.852e+0	2.546e-6
1.853e+0	2.546e-6
1.854e+0	2.577e-6
1.855e+0	2.577e-6
1.856e+0	2.577e-6
1.857e+0	2.546e-6
1.858e+0	2.577e-6
1.859e+0	2.516e-6
1.860e+0	2.577e-6
1.861e+0	2.546e-6
1.862e+0	2.546e-6
1.863e+0	2.516e-6
1.864e+0	2.577e-6
1.865e+0	2.455e-6
1.866e+0	2.516e-6
1.867e+0	2.516e-6
1.868e+0	2.577e-6
1.869e+0	2.546e-6
1.870e+0	2.516e-6
1.871e+0	2.546e-6
1.872e+0	2.577e-6
1.873e+0	2.577e-6
1.874e+0	2.577e-6
1.875e+0	2.546e-6
1.876e+0	2.546e-6
1.877e+0	2.546e-6
1.878e+0	2.577e-6
1.879e+0	2.516e-6
1.880e+0	2.577e-6
1.881e+0	2.546e-6
1.882e+0	2.546e-6
1.883e+0	2.516e-6
1.884e+0	2.577e-6
1.885e+0	2.546e-6
1.886e+0	2.546e-6
1.887e+0	2.546e-6
1.888e+0	2.546e-6
1.889e+0	2.516e-6
1.890e+0	2.577e-6
1.891e+0	2.485e-6
1.892e+0	2.546e-6
1.893e+0	2.516e-6
1.894e+0	2.546e-6
1.895e+0	2.516e-6
1.896e+0	2.577e-6
1.897e+0	2.485e-6
1.898e+0	2.485e-6
1.899e+0	2.546e-6
1.900e+0	2.546e-6
1.901e+0	2.577e-6
1.902e+0	2.577e-6
1.903e+0	2.577e-6
1.904e+0	2.577e-6
1.905e+0	2.516e-6
1.906e+0	2.577e-6
1.907e+0	2.577e-6
1.908e+0	2.577e-6
1.909e+0	2.577e-6
1.910e+0	2.516e-6
1.911e+0	2.546e-6
1.912e+0	2.577e-6
1.913e+0	2.485e-6
1.914e+0	2.577e-6
1.915e+0	2.424e-6
1.916e+0	2.485e-6
1.917e+0	2.516e-6
1.918e+0	2.577e-6
1.919e+0	2.485e-6
1.920e+0	2.546e-6
1.921e+0	2.516e-6
1.922e+0	2.485e-6
1.923e+0	2.516e-6
1.924e+0	2.546e-6
1.925e+0	2.546e-6
1.926e+0	2.546e-6
1.927e+0	2.546e-6
1.928e+0	2.546e-6
1.929e+0	2.577e-6
1.930e+0	2.577e-6
1.931e+0	2.424e-6
1.932e+0	2.516e-6
1.933e+0	2.516e-6
1.934e+0	2.485e-6
1.935e+0	2.546e-6
1.936e+0	2.546e-6
1.937e+0	2.516e-6
1.938e+0	2.485e-6
1.939e+0	2.455e-6
1.940e+0	2.577e-6
1.941e+0	2.577e-6
1.942e+0	2.516e-6
1.943e+0	2.516e-6
1.944e+0	2.516e-6
1.945e+0	2.577e-6
1.946e+0	2.546e-6
1.947e+0	2.546e-6
1.948e+0	2.516e-6
1.949e+0	2.455e-6
1.950e+0	2.546e-6
1.951e+0	2.546e-6
1.952e+0	2.516e-6
1.953e+0	2.455e-6
1.954e+0	2.516e-6
1.955e+0	2.546e-6
1.956e+0	2.546e-6
1.957e+0	2.516e-6
1.958e+0	2.546e-6
1.959e+0	2.546e-6
1.960e+0	2.546e-6
1.961e+0	2.516e-6
1.962e+0	2.577e-6
1.963e+0	2.485e-6
1.964e+0	2.546e-6
1.965e+0	2.546e-6
1.966e+0	2.455e-6
1.967e+0	2.455e-6
1.968e+0	2.485e-6
1.969e+0	2.485e-6
1.970e+0	2.485e-6
1.971e+0	2.546e-6
1.972e+0	2.516e-6
1.973e+0	2.546e-6
1.974e+0	2.516e-6
1.975e+0	2.424e-6
1.976e+0	2.546e-6
1.977e+0	2.516e-6
1.978e+0	2.424e-6
1.979e+0	2.485e-6
1.980e+0	2.485e-6
1.981e+0	2.546e-6
1.982e+0	2.424e-6
1.983e+0	2.516e-6
1.984e+0	2.485e-6
1.985e+0	2.516e-6
1.986e+0	2.485e-6
1.987e+0	2.516e-6
1.988e+0	2.546e-6
1.989e+0	2.546e-6
1.990e+0	2.546e-6
1.991e+0	2.485e-6
1.992e+0	2.516e-6
1.993e+0	2.485e-6
1.994e+0	2.485e-6
1.995e+0	2.516e-6
1.996e+0	2.516e-6
1.997e+0	2.546e-6
1.998e+0	2.516e-6
1.999e+0	2.546e-6
2.000e+0	2.485e-6
2.001e+0	2.455e-6
2.002e+0	2.424e-6
2.003e+0	2.546e-6
2.004e+0	2.546e-6
2.005e+0	2.394e-6
2.006e+0	2.424e-6
2.007e+0	2.577e-6
2.008e+0	2.516e-6
2.009e+0	2.516e-6
2.010e+0	2.455e-6
2.011e+0	2.485e-6
2.012e+0	2.424e-6
2.013e+0	2.455e-6
2.014e+0	2.424e-6
2.015e+0	2.546e-6
2.016e+0	2.516e-6
2.017e+0	2.485e-6
2.018e+0	2.546e-6
2.019e+0	2.455e-6
2.020e+0	2.455e-6
2.021e+0	2.394e-6
2.022e+0	2.394e-6
2.023e+0	2.516e-6
2.024e+0	2.546e-6
2.025e+0	2.546e-6
2.026e+0	2.485e-6
2.027e+0	2.546e-6
2.028e+0	2.485e-6
2.029e+0	2.333e-6
2.030e+0	2.546e-6
2.031e+0	2.455e-6
2.032e+0	2.455e-6
2.033e+0	2.516e-6
2.034e+0	2.546e-6
2.035e+0	2.363e-6
2.036e+0	2.455e-6
2.037e+0	2.485e-6
2.038e+0	2.455e-6
2.039e+0	2.546e-6
2.040e+0	2.516e-6
2.041e+0	2.546e-6
2.042e+0	2.546e-6
2.043e+0	2.424e-6
2.044e+0	2.485e-6
2.045e+0	2.424e-6
2.046e+0	2.577e-6
2.047e+0	2.394e-6
2.048e+0	2.394e-6
2.049e+0	2.424e-6
2.050e+0	2.485e-6
2.051e+0	2.485e-6
2.052e+0	2.546e-6
2.053e+0	2.455e-6
2.054e+0	2.424e-6
2.055e+0	2.394e-6
2.056e+0	2.516e-6
2.057e+0	2.455e-6
2.058e+0	2.455e-6
2.059e+0	2.424e-6
2.060e+0	2.485e-6
2.061e+0	2.516e-6
2.062e+0	2.485e-6
2.063e+0	2.516e-6
2.064e+0	2.455e-6
2.065e+0	2.394e-6
2.066e+0	2.424e-6
2.067e+0	2.455e-6
2.068e+0	2.546e-6
2.069e+0	2.546e-6
2.070e+0	2.455e-6
2.071e+0	2.394e-6
2.072e+0	2.424e-6
2.073e+0	2.455e-6
2.074e+0	2.546e-6
2.075e+0	2.455e-6
2.076e+0	2.424e-6
2.077e+0	2.455e-6
2.078e+0	2.394e-6
2.079e+0	2.424e-6
2.080e+0	2.516e-6
2.081e+0	2.455e-6
2.082e+0	2.516e-6
2.083e+0	2.424e-6
2.084e+0	2.455e-6
2.085e+0	2.271e-6
2.086e+0	2.455e-6
2.087e+0	2.485e-6
2.088e+0	2.424e-6
2.089e+0	2.424e-6
2.090e+0	2.424e-6
2.091e+0	2.516e-6
2.092e+0	2.394e-6
2.093e+0	2.455e-6
2.094e+0	2.455e-6
2.095e+0	2.485e-6
2.096e+0	2.516e-6
2.097e+0	2.455e-6
2.098e+0	2.394e-6
2.099e+0	2.363e-6
2.100e+0	2.546e-6
2.101e+0	2.485e-6
2.102e+0	2.394e-6
2.103e+0	2.394e-6
2.104e+0	2.424e-6
2.105e+0	2.485e-6
2.106e+0	2.485e-6
2.107e+0	2.455e-6
2.108e+0	2.455e-6
2.109e+0	2.424e-6
2.110e+0	2.516e-6
2.111e+0	2.302e-6
2.112e+0	2.455e-6
2.113e+0	2.546e-6
2.114e+0	2.424e-6
2.115e+0	2.302e-6
2.116e+0	2.424e-6
2.117e+0	2.485e-6
2.118e+0	2.363e-6
2.119e+0	2.546e-6
2.120e+0	2.424e-6
2.121e+0	2.302e-6
2.122e+0	2.485e-6
2.123e+0	2.455e-6
2.124e+0	2.424e-6
2.125e+0	2.455e-6
2.126e+0	2.394e-6
2.127e+0	2.546e-6
2.128e+0	2.424e-6
2.129e+0	2.546e-6
2.130e+0	2.394e-6
2.131e+0	2.302e-6
2.132e+0	2.333e-6
2.133e+0	2.424e-6
2.134e+0	2.455e-6
2.135e+0	2.363e-6
2.136e+0	2.363e-6
2.137e+0	2.394e-6
2.138e+0	2.210e-6
2.139e+0	2.485e-6
2.140e+0	2.424e-6
2.141e+0	2.394e-6
2.142e+0	2.485e-6
2.143e+0	2.424e-6
2.144e+0	2.546e-6
2.145e+0	2.363e-6
2.146e+0	2.516e-6
2.147e+0	2.424e-6
2.148e+0	2.333e-6
2.149e+0	2.333e-6
2.150e+0	2.424e-6
2.151e+0	2.394e-6
2.152e+0	2.424e-6
2.153e+0	2.516e-6
2.154e+0	2.363e-6
2.155e+0	2.455e-6
2.156e+0	2.485e-6
2.157e+0	2.424e-6
2.158e+0	2.424e-6
2.159e+0	2.394e-6
2.160e+0	2.424e-6
2.161e+0	2.485e-6
2.162e+0	2.455e-6
2.163e+0	2.455e-6
2.164e+0	2.455e-6
2.165e+0	2.455e-6
2.166e+0	2.363e-6
2.167e+0	2.485e-6
2.168e+0	2.424e-6
2.169e+0	2.363e-6
2.170e+0	2.363e-6
2.171e+0	2.333e-6
2.172e+0	2.333e-6
2.173e+0	2.394e-6
2.174e+0	2.455e-6
2.175e+0	2.333e-6
2.176e+0	2.394e-6
2.177e+0	2.363e-6
2.178e+0	2.424e-6
2.179e+0	2.424e-6
2.180e+0	2.394e-6
2.181e+0	2.241e-6
2.182e+0	2.333e-6
2.183e+0	2.394e-6
2.184e+0	2.363e-6
2.185e+0	2.485e-6
2.186e+0	2.363e-6
2.187e+0	2.394e-6
2.188e+0	2.394e-6
2.189e+0	2.363e-6
2.190e+0	2.394e-6
2.191e+0	2.394e-6
2.192e+0	2.485e-6
2.193e+0	2.516e-6
2.194e+0	2.394e-6
2.195e+0	2.302e-6
2.196e+0	2.485e-6
2.197e+0	2.394e-6
2.198e+0	2.485e-6
2.199e+0	2.333e-6
2.200e+0	2.271e-6
2.201e+0	2.424e-6
2.202e+0	2.302e-6
2.203e+0	2.424e-6
2.204e+0	2.394e-6
2.205e+0	2.241e-6
2.206e+0	2.394e-6
2.207e+0	2.455e-6
2.208e+0	2.394e-6
2.209e+0	2.302e-6
2.210e+0	2.394e-6
2.211e+0	2.271e-6
2.212e+0	2.333e-6
2.213e+0	2.424e-6
2.214e+0	2.516e-6
2.215e+0	2.363e-6
2.216e+0	2.333e-6
2.217e+0	2.424e-6
2.218e+0	2.333e-6
2.219e+0	2.333e-6
2.220e+0	2.455e-6
2.221e+0	2.333e-6
2.222e+0	2.333e-6
2.223e+0	2.394e-6
2.224e+0	2.302e-6
2.225e+0	2.333e-6
2.226e+0	2.363e-6
2.227e+0	2.271e-6
2.228e+0	2.394e-6
2.229e+0	2.363e-6
2.230e+0	2.424e-6
2.231e+0	2.363e-6
2.232e+0	2.363e-6
2.233e+0	2.302e-6
2.234e+0	2.424e-6
2.235e+0	2.333e-6
2.236e+0	2.333e-6
2.237e+0	2.333e-6
2.238e+0	2.424e-6
2.239e+0	2.271e-6
2.240e+0	2.333e-6
2.241e+0	2.363e-6
2.242e+0	2.333e-6
2.243e+0	2.302e-6
2.244e+0	2.333e-6
2.245e+0	2.363e-6
2.246e+0	2.333e-6
2.247e+0	2.333e-6
2.248e+0	2.455e-6
2.249e+0	2.333e-6
2.250e+0	2.394e-6
2.251e+0	2.363e-6
2.252e+0	2.424e-6
2.253e+0	2.302e-6
2.254e+0	2.333e-6
2.255e+0	2.302e-6
2.256e+0	2.394e-6
2.257e+0	2.363e-6
2.258e+0	2.363e-6
2.259e+0	2.333e-6
2.260e+0	2.333e-6
2.261e+0	2.333e-6
2.262e+0	2.333e-6
2.263e+0	2.333e-6
2.264e+0	2.271e-6
2.265e+0	2.271e-6
2.266e+0	2.241e-6
2.267e+0	2.455e-6
2.268e+0	2.302e-6
2.269e+0	2.302e-6
2.270e+0	2.271e-6
2.271e+0	2.302e-6
2.272e+0	2.363e-6
2.273e+0	2.271e-6
2.274e+0	2.424e-6
2.275e+0	2.333e-6
2.276e+0	2.546e-6
2.277e+0	2.302e-6
2.278e+0	2.271e-6
2.279e+0	2.363e-6
2.280e+0	2.302e-6
2.281e+0	2.424e-6
2.282e+0	2.210e-6
2.283e+0	2.302e-6
2.284e+0	2.271e-6
2.285e+0	2.394e-6
2.286e+0	2.302e-6
2.287e+0	2.271e-6
2.288e+0	2.271e-6
2.289e+0	2.149e-6
2.290e+0	2.455e-6
2.291e+0	2.210e-6
2.292e+0	2.394e-6
2.293e+0	2.241e-6
2.294e+0	2.271e-6
2.295e+0	2.394e-6
2.296e+0	2.455e-6
2.297e+0	2.241e-6
2.298e+0	2.210e-6
2.299e+0	2.271e-6
2.300e+0	2.363e-6
2.301e+0	2.271e-6
2.302e+0	2.210e-6
2.303e+0	2.302e-6
2.304e+0	2.241e-6
2.305e+0	2.302e-6
2.306e+0	2.271e-6
2.307e+0	2.271e-6
2.308e+0	2.333e-6
2.309e+0	2.210e-6
2.310e+0	2.271e-6
2.311e+0	2.180e-6
2.312e+0	2.363e-6
2.313e+0	2.271e-6
2.314e+0	2.363e-6
2.315e+0	2.210e-6
2.316e+0	2.241e-6
2.317e+0	2.363e-6
2.318e+0	2.271e-6
2.319e+0	2.424e-6
2.320e+0	2.271e-6
2.321e+0	2.241e-6
2.322e+0	2.271e-6
2.323e+0	2.180e-6
2.324e+0	2.394e-6
2.325e+0	2.302e-6
2.326e+0	2.210e-6
2.327e+0	2.333e-6
2.328e+0	2.180e-6
2.329e+0	2.424e-6
2.330e+0	2.302e-6
2.331e+0	2.363e-6
2.332e+0	2.210e-6
2.333e+0	2.333e-6
2.334e+0	2.333e-6
2.335e+0	2.302e-6
2.336e+0	2.333e-6
2.337e+0	2.271e-6
2.338e+0	2.241e-6
2.339e+0	2.271e-6
2.340e+0	2.302e-6
2.341e+0	2.302e-6
2.342e+0	2.302e-6
2.343e+0	2.180e-6
2.344e+0	2.241e-6
2.345e+0	2.333e-6
2.346e+0	2.210e-6
2.347e+0	2.302e-6
2.348e+0	2.210e-6
2.349e+0	2.210e-6
2.350e+0	2.271e-6
2.351e+0	2.241e-6
2.352e+0	2.302e-6
2.353e+0	2.302e-6
2.354e+0	2.149e-6
2.355e+0	2.302e-6
2.356e+0	2.394e-6
2.357e+0	2.363e-6
2.358e+0	2.333e-6
2.359e+0	2.302e-6
2.360e+0	2.210e-6
2.361e+0	2.149e-6
2.362e+0	2.302e-6
2.363e+0	2.394e-6
2.364e+0	2.241e-6
2.365e+0	2.149e-6
2.366e+0	2.210e-6
2.367e+0	2.241e-6
2.368e+0	2.302e-6
2.369e+0	2.333e-6
2.370e+0	2.210e-6
2.371e+0	2.210e-6
2.372e+0	2.241e-6
2.373e+0	2.333e-6
2.374e+0	2.302e-6
2.375e+0	2.241e-6
2.376e+0	2.210e-6
2.377e+0	2.271e-6
2.378e+0	2.302e-6
2.379e+0	2.271e-6
2.380e+0	2.241e-6
2.381e+0	2.302e-6
2.382e+0	2.302e-6
2.383e+0	2.302e-6
2.384e+0	2.271e-6
2.385e+0	2.210e-6
2.386e+0	2.241e-6
2.387e+0	2.210e-6
2.388e+0	2.180e-6
2.389e+0	2.180e-6
2.390e+0	2.271e-6
2.391e+0	2.210e-6
2.392e+0	2.180e-6
2.393e+0	2.271e-6
2.394e+0	2.180e-6
2.395e+0	2.302e-6
2.396e+0	2.271e-6
2.397e+0	2.241e-6
2.398e+0	2.271e-6
2.399e+0	2.058e-6
2.400e+0	2.333e-6
2.401e+0	2.271e-6
2.402e+0	2.210e-6
2.403e+0	2.302e-6
2.404e+0	2.302e-6
2.405e+0	2.180e-6
2.406e+0	2.180e-6
2.407e+0	2.271e-6
2.408e+0	2.210e-6
2.409e+0	2.180e-6
2.410e+0	2.241e-6
2.411e+0	2.271e-6
2.412e+0	2.180e-6
2.413e+0	2.241e-6
2.414e+0	2.271e-6
2.415e+0	2.241e-6
2.416e+0	2.302e-6
2.417e+0	2.333e-6
2.418e+0	2.149e-6
2.419e+0	2.302e-6
2.420e+0	2.241e-6
2.421e+0	2.210e-6
2.422e+0	2.119e-6
2.423e+0	2.210e-6
2.424e+0	2.180e-6
2.425e+0	2.241e-6
2.426e+0	2.210e-6
2.427e+0	2.210e-6
2.428e+0	2.149e-6
2.429e+0	2.241e-6
2.430e+0	2.302e-6
2.431e+0	2.210e-6
2.432e+0	2.088e-6
2.433e+0	2.149e-6
2.434e+0	2.180e-6
2.435e+0	2.241e-6
2.436e+0	2.210e-6
2.437e+0	2.241e-6
2.438e+0	2.271e-6
2.439e+0	2.149e-6
2.440e+0	2.302e-6
2.441e+0	2.149e-6
2.442e+0	2.210e-6
2.443e+0	2.271e-6
2.444e+0	2.119e-6
2.445e+0	2.180e-6
2.446e+0	2.271e-6
2.447e+0	2.180e-6
2.448e+0	2.210e-6
2.449e+0	2.210e-6
2.450e+0	2.241e-6
2.451e+0	2.180e-6
2.452e+0	2.210e-6
2.453e+0	2.210e-6
2.454e+0	2.119e-6
2.455e+0	2.271e-6
2.456e+0	2.271e-6
2.457e+0	2.302e-6
2.458e+0	2.180e-6
2.459e+0	2.149e-6
2.460e+0	2.210e-6
2.461e+0	2.241e-6
2.462e+0	2.149e-6
2.463e+0	2.302e-6
2.464e+0	2.210e-6
2.465e+0	2.088e-6
2.466e+0	2.241e-6
2.467e+0	2.180e-6
2.468e+0	2.149e-6
2.469e+0	2.210e-6
2.470e+0	2.241e-6
2.471e+0	2.210e-6
2.472e+0	2.180e-6
2.473e+0	2.210e-6
2.474e+0	2.210e-6
2.475e+0	2.180e-6
2.476e+0	2.149e-6
2.477e+0	2.149e-6
2.478e+0	2.149e-6
2.479e+0	2.149e-6
2.480e+0	2.180e-6
2.481e+0	2.271e-6
2.482e+0	2.119e-6
2.483e+0	2.180e-6
2.484e+0	2.119e-6
2.485e+0	2.241e-6
2.486e+0	2.119e-6
2.487e+0	2.180e-6
2.488e+0	2.149e-6
2.489e+0	2.149e-6
2.490e+0	2.241e-6
2.491e+0	2.088e-6
2.492e+0	2.149e-6
2.493e+0	2.119e-6
2.494e+0	2.210e-6
2.495e+0	2.149e-6
2.496e+0	2.210e-6
2.497e+0	2.241e-6
2.498e+0	2.180e-6
2.499e+0	2.149e-6
2.500e+0	2.149e-6
2.501e+0	2.149e-6
2.502e+0	2.180e-6
2.503e+0	2.210e-6
2.504e+0	2.119e-6
2.505e+0	2.119e-6
2.506e+0	2.149e-6
2.507e+0	2.241e-6
2.508e+0	2.180e-6
2.509e+0	2.180e-6
2.510e+0	2.149e-6
2.511e+0	2.180e-6
2.512e+0	2.210e-6
2.513e+0	2.149e-6
2.514e+0	2.210e-6
2.515e+0	2.149e-6
2.516e+0	2.149e-6
2.517e+0	2.149e-6
2.518e+0	2.149e-6
2.519e+0	2.210e-6
2.520e+0	2.119e-6
2.521e+0	2.241e-6
2.522e+0	2.149e-6
2.523e+0	2.210e-6
2.524e+0	2.180e-6
2.525e+0	2.180e-6
2.526e+0	2.180e-6
2.527e+0	2.180e-6
2.528e+0	2.180e-6
2.529e+0	2.180e-6
2.530e+0	2.241e-6
2.531e+0	2.180e-6
2.532e+0	2.088e-6
2.533e+0	2.149e-6
2.534e+0	2.180e-6
2.535e+0	2.149e-6
2.536e+0	2.119e-6
2.537e+0	2.149e-6
2.538e+0	2.119e-6
2.539e+0	2.149e-6
2.540e+0	2.119e-6
2.541e+0	2.149e-6
2.542e+0	2.149e-6
2.543e+0	2.119e-6
2.544e+0	2.149e-6
2.545e+0	2.149e-6
2.546e+0	2.149e-6
2.547e+0	2.149e-6
2.548e+0	2.149e-6
2.549e+0	2.119e-6
2.550e+0	2.210e-6
2.551e+0	2.149e-6
2.552e+0	2.088e-6
2.553e+0	2.119e-6
2.554e+0	2.088e-6
2.555e+0	2.180e-6
2.556e+0	2.149e-6
2.557e+0	2.149e-6
2.558e+0	2.149e-6
2.559e+0	2.180e-6
2.560e+0	2.149e-6
2.561e+0	2.149e-6
2.562e+0	2.210e-6
2.563e+0	2.149e-6
2.564e+0	2.180e-6
2.565e+0	2.149e-6
2.566e+0	2.180e-6
2.567e+0	2.088e-6
2.568e+0	2.241e-6
2.569e+0	2.180e-6
2.570e+0	2.149e-6
2.571e+0	2.119e-6
2.572e+0	2.241e-6
2.573e+0	2.149e-6
2.574e+0	2.149e-6
2.575e+0	2.149e-6
2.576e+0	2.088e-6
2.577e+0	2.119e-6
2.578e+0	2.210e-6
2.579e+0	2.149e-6
2.580e+0	2.119e-6
2.581e+0	2.149e-6
2.582e+0	2.149e-6
2.583e+0	2.088e-6
2.584e+0	2.149e-6
2.585e+0	2.119e-6
2.586e+0	2.119e-6
2.587e+0	2.119e-6
2.588e+0	2.149e-6
2.589e+0	2.119e-6
2.590e+0	2.119e-6
2.591e+0	2.119e-6
2.592e+0	2.119e-6
2.593e+0	2.088e-6
2.594e+0	2.149e-6
2.595e+0	2.149e-6
2.596e+0	2.149e-6
2.597e+0	2.088e-6
2.598e+0	2.149e-6
2.599e+0	2.149e-6
2.600e+0	2.119e-6
2.601e+0	2.149e-6
2.602e+0	2.088e-6
2.603e+0	2.119e-6
2.604e+0	2.119e-6
2.605e+0	2.088e-6
2.606e+0	2.119e-6
2.607e+0	2.149e-6
2.608e+0	2.149e-6
2.609e+0	2.088e-6
2.610e+0	2.149e-6
2.611e+0	2.088e-6
2.612e+0	2.180e-6
2.613e+0	2.149e-6
2.614e+0	2.149e-6
2.615e+0	2.149e-6
2.616e+0	2.180e-6
2.617e+0	2.149e-6
2.618e+0	2.119e-6
2.619e+0	2.119e-6
2.620e+0	2.149e-6
2.621e+0	2.088e-6
2.622e+0	2.088e-6
2.623e+0	2.180e-6
2.624e+0	2.119e-6
2.625e+0	2.088e-6
2.626e+0	2.149e-6
2.627e+0	2.180e-6
2.628e+0	2.149e-6
2.629e+0	2.119e-6
2.630e+0	2.088e-6
2.631e+0	2.149e-6
2.632e+0	2.088e-6
2.633e+0	2.149e-6
2.634e+0	2.088e-6
2.635e+0	2.119e-6
2.636e+0	2.149e-6
2.637e+0	2.119e-6
2.638e+0	2.119e-6
2.639e+0	2.119e-6
2.640e+0	2.119e-6
2.641e+0	2.149e-6
2.642e+0	2.088e-6
2.643e+0	2.088e-6
2.644e+0	2.088e-6
2.645e+0	2.119e-6
2.646e+0	2.149e-6
2.647e+0	2.119e-6
2.648e+0	2.088e-6
2.649e+0	2.149e-6
2.650e+0	2.119e-6
2.651e+0	2.180e-6
2.652e+0	2.149e-6
2.653e+0	2.149e-6
2.654e+0	2.149e-6
2.655e+0	2.088e-6
2.656e+0	2.088e-6
2.657e+0	2.149e-6
2.658e+0	2.119e-6
2.659e+0	2.119e-6
2.660e+0	2.180e-6
2.661e+0	2.180e-6
2.662e+0	2.088e-6
2.663e+0	2.180e-6
2.664e+0	2.088e-6
2.665e+0	2.149e-6
2.666e+0	2.149e-6
2.667e+0	2.149e-6
2.668e+0	2.119e-6
2.669e+0	2.088e-6
2.670e+0	2.088e-6
2.671e+0	2.088e-6
2.672e+0	2.119e-6
2.673e+0	2.119e-6
2.674e+0	2.149e-6
2.675e+0	2.119e-6
2.676e+0	2.119e-6
2.677e+0	2.088e-6
2.678e+0	2.119e-6
2.679e+0	2.149e-6
2.680e+0	2.149e-6
2.681e+0	2.149e-6
2.682e+0	2.180e-6
2.683e+0	2.088e-6
2.684e+0	2.119e-6
2.685e+0	2.149e-6
2.686e+0	2.088e-6
2.687e+0	2.119e-6
2.688e+0	2.119e-6
2.689e+0	2.149e-6
2.690e+0	2.180e-6
2.691e+0	2.149e-6
2.692e+0	2.088e-6
2.693e+0	2.119e-6
2.694e+0	2.180e-6
2.695e+0	2.088e-6
2.696e+0	2.119e-6
2.697e+0	2.088e-6
2.698e+0	2.088e-6
2.699e+0	2.119e-6
2.700e+0	2.149e-6
2.701e+0	2.088e-6
2.702e+0	2.119e-6
2.703e+0	2.088e-6
2.704e+0	2.119e-6
2.705e+0	2.119e-6
2.706e+0	2.149e-6
2.707e+0	2.149e-6
2.708e+0	2.088e-6
2.709e+0	2.058e-6
2.710e+0	2.119e-6
2.711e+0	2.088e-6
2.712e+0	2.088e-6
2.713e+0	2.180e-6
2.714e+0	2.149e-6
2.715e+0	2.088e-6
2.716e+0	2.088e-6
2.717e+0	2.088e-6
2.718e+0	2.210e-6
2.719e+0	2.088e-6
2.720e+0	2.119e-6
2.721e+0	2.149e-6
2.722e+0	2.088e-6
2.723e+0	2.088e-6
2.724e+0	2.088e-6
2.725e+0	2.149e-6
2.726e+0	2.119e-6
2.727e+0	2.088e-6
2.728e+0	2.088e-6
2.729e+0	2.119e-6
2.730e+0	2.149e-6
2.731e+0	2.088e-6
2.732e+0	2.119e-6
2.733e+0	2.058e-6
2.734e+0	2.149e-6
2.735e+0	2.088e-6
2.736e+0	2.119e-6
2.737e+0	2.119e-6
2.738e+0	2.119e-6
2.739e+0	2.180e-6
2.740e+0	2.119e-6
2.741e+0	2.058e-6
2.742e+0	2.119e-6
2.743e+0	2.088e-6
2.744e+0	2.119e-6
2.745e+0	2.088e-6
2.746e+0	2.088e-6
2.747e+0	2.088e-6
2.748e+0	2.119e-6
2.749e+0	2.088e-6
2.750e+0	2.119e-6
2.751e+0	2.119e-6
2.752e+0	2.088e-6
2.753e+0	2.119e-6
2.754e+0	2.119e-6
2.755e+0	2.149e-6
2.756e+0	2.149e-6
2.757e+0	2.210e-6
2.758e+0	2.119e-6
2.759e+0	2.058e-6
2.760e+0	2.088e-6
2.761e+0	2.119e-6
2.762e+0	2.088e-6
2.763e+0	2.119e-6
2.764e+0	2.088e-6
2.765e+0	2.088e-6
2.766e+0	2.119e-6
2.767e+0	2.149e-6
2.768e+0	2.088e-6
2.769e+0	2.119e-6
2.770e+0	2.088e-6
2.771e+0	2.058e-6
2.772e+0	2.088e-6
2.773e+0	2.180e-6
2.774e+0	2.088e-6
2.775e+0	2.088e-6
2.776e+0	2.119e-6
2.777e+0	2.088e-6
2.778e+0	2.119e-6
2.779e+0	2.088e-6
2.780e+0	2.149e-6
2.781e+0	2.088e-6
2.782e+0	2.119e-6
2.783e+0	2.088e-6
2.784e+0	2.119e-6
2.785e+0	2.088e-6
2.786e+0	2.088e-6
2.787e+0	2.058e-6
2.788e+0	2.119e-6
2.789e+0	2.088e-6
2.790e+0	2.149e-6
2.791e+0	2.119e-6
2.792e+0	2.088e-6
2.793e+0	2.149e-6
2.794e+0	2.088e-6
2.795e+0	2.088e-6
2.796e+0	2.088e-6
2.797e+0	2.058e-6
2.798e+0	2.088e-6
2.799e+0	2.058e-6
2.800e+0	2.088e-6
2.801e+0	2.088e-6
2.802e+0	2.088e-6
2.803e+0	2.119e-6
2.804e+0	2.119e-6
2.805e+0	2.119e-6
2.806e+0	2.088e-6
2.807e+0	2.088e-6
2.808e+0	2.088e-6
2.809e+0	2.058e-6
2.810e+0	2.088e-6
2.811e+0	2.088e-6
2.812e+0	2.119e-6
2.813e+0	2.088e-6
2.814e+0	2.088e-6
2.815e+0	2.058e-6
2.816e+0	2.088e-6
2.817e+0	2.119e-6
2.818e+0	2.119e-6
2.819e+0	2.058e-6
2.820e+0	2.088e-6
2.821e+0	2.088e-6
2.822e+0	2.119e-6
2.823e+0	2.058e-6
2.824e+0	2.088e-6
2.825e+0	2.088e-6
2.826e+0	2.088e-6
2.827e+0	2.119e-6
2.828e+0	2.149e-6
2.829e+0	2.149e-6
2.830e+0	2.088e-6
2.831e+0	2.088e-6
2.832e+0	2.088e-6
2.833e+0	2.058e-6
2.834e+0	2.119e-6
2.835e+0	2.088e-6
2.836e+0	2.088e-6
2.837e+0	2.058e-6
2.838e+0	2.088e-6
2.839e+0	2.088e-6
2.840e+0	2.119e-6
2.841e+0	2.088e-6
2.842e+0	2.088e-6
2.843e+0	2.088e-6
2.844e+0	2.088e-6
2.845e+0	2.058e-6
2.846e+0	2.149e-6
2.847e+0	2.058e-6
2.848e+0	2.088e-6
2.849e+0	2.058e-6
2.850e+0	2.088e-6
2.851e+0	2.088e-6
2.852e+0	2.088e-6
2.853e+0	2.088e-6
2.854e+0	2.088e-6
2.855e+0	2.088e-6
2.856e+0	2.088e-6
2.857e+0	2.119e-6
2.858e+0	2.119e-6
2.859e+0	2.058e-6
2.860e+0	2.149e-6
2.861e+0	2.088e-6
2.862e+0	2.119e-6
2.863e+0	2.149e-6
2.864e+0	2.088e-6
2.865e+0	2.088e-6
2.866e+0	2.088e-6
2.867e+0	2.119e-6
2.868e+0	2.149e-6
2.869e+0	2.058e-6
2.870e+0	2.088e-6
2.871e+0	2.088e-6
2.872e+0	2.088e-6
2.873e+0	2.088e-6
2.874e+0	2.088e-6
2.875e+0	2.088e-6
2.876e+0	2.088e-6
2.877e+0	2.058e-6
2.878e+0	2.088e-6
2.879e+0	2.088e-6
2.880e+0	2.088e-6
2.881e+0	2.088e-6
2.882e+0	2.119e-6
2.883e+0	2.058e-6
2.884e+0	2.119e-6
2.885e+0	2.088e-6
2.886e+0	2.088e-6
2.887e+0	2.088e-6
2.888e+0	2.119e-6
2.889e+0	2.088e-6
2.890e+0	2.088e-6
2.891e+0	2.088e-6
2.892e+0	2.088e-6
2.893e+0	2.088e-6
2.894e+0	2.119e-6
2.895e+0	2.088e-6
2.896e+0	2.088e-6
2.897e+0	2.058e-6
2.898e+0	2.088e-6
2.899e+0	2.119e-6
2.900e+0	2.088e-6
2.901e+0	2.058e-6
2.902e+0	2.088e-6
2.903e+0	2.088e-6
2.904e+0	2.088e-6
2.905e+0	2.058e-6
2.906e+0	2.088e-6
2.907e+0	2.088e-6
2.908e+0	2.088e-6
2.909e+0	2.058e-6
2.910e+0	2.119e-6
2.911e+0	2.088e-6
2.912e+0	2.088e-6
2.913e+0	2.088e-6
2.914e+0	2.088e-6
2.915e+0	2.058e-6
2.916e+0	2.088e-6
2.917e+0	2.149e-6
2.918e+0	2.088e-6
2.919e+0	2.058e-6
2.920e+0	2.088e-6
2.921e+0	2.088e-6
2.922e+0	2.119e-6
2.923e+0	2.088e-6
2.924e+0	2.088e-6
2.925e+0	2.058e-6
2.926e+0	2.088e-6
2.927e+0	2.119e-6
2.928e+0	2.149e-6
2.929e+0	2.088e-6
2.930e+0	2.119e-6
2.931e+0	2.119e-6
2.932e+0	2.088e-6
2.933e+0	2.058e-6
2.934e+0	2.088e-6
2.935e+0	2.088e-6
2.936e+0	2.088e-6
2.937e+0	2.058e-6
2.938e+0	2.088e-6
2.939e+0	2.088e-6
2.940e+0	2.088e-6
2.941e+0	2.088e-6
2.942e+0	2.119e-6
2.943e+0	2.119e-6
2.944e+0	2.088e-6
2.945e+0	2.119e-6
2.946e+0	2.119e-6
2.947e+0	2.088e-6
2.948e+0	2.119e-6
2.949e+0	2.088e-6
2.950e+0	2.088e-6
2.951e+0	2.058e-6
2.952e+0	2.088e-6
2.953e+0	2.088e-6
2.954e+0	2.088e-6
2.955e+0	2.119e-6
2.956e+0	2.088e-6
2.957e+0	2.088e-6
2.958e+0	2.088e-6
2.959e+0	2.088e-6
2.960e+0	2.088e-6
2.961e+0	2.119e-6
2.962e+0	2.088e-6
2.963e+0	2.088e-6
2.964e+0	2.088e-6
2.965e+0	2.088e-6
2.966e+0	2.088e-6
2.967e+0	2.088e-6
2.968e+0	2.119e-6
2.969e+0	2.119e-6
2.970e+0	2.119e-6
2.971e+0	2.088e-6
2.972e+0	2.088e-6
2.973e+0	2.088e-6
2.974e+0	2.088e-6
2.975e+0	2.088e-6
2.976e+0	2.088e-6
2.977e+0	2.088e-6
2.978e+0	2.119e-6
2.979e+0	2.088e-6
2.980e+0	2.119e-6
2.981e+0	2.088e-6
2.982e+0	2.088e-6
2.983e+0	2.088e-6
2.984e+0	2.088e-6
2.985e+0	2.088e-6
2.986e+0	2.088e-6
2.987e+0	2.088e-6
2.988e+0	2.088e-6
2.989e+0	2.088e-6
2.990e+0	2.088e-6
2.991e+0	2.119e-6
2.992e+0	2.088e-6
2.993e+0	2.088e-6
2.994e+0	2.088e-6
2.995e+0	2.088e-6
2.996e+0	2.088e-6
2.997e+0	2.088e-6
2.998e+0	2.088e-6
2.999e+0	2.088e-6
3.000e+0	2.119e-6
3.001e+0	2.119e-6
3.002e+0	2.088e-6
3.003e+0	2.088e-6
3.004e+0	2.119e-6
3.005e+0	2.088e-6
3.006e+0	2.088e-6
3.007e+0	2.119e-6
3.008e+0	2.088e-6
3.009e+0	2.088e-6
3.010e+0	2.088e-6
3.011e+0	2.088e-6
3.012e+0	2.088e-6
3.013e+0	2.088e-6
3.014e+0	2.088e-6
3.015e+0	2.088e-6
3.016e+0	2.088e-6
3.017e+0	2.088e-6
3.018e+0	2.088e-6
3.019e+0	2.119e-6
3.020e+0	2.088e-6
3.021e+0	2.088e-6
3.022e+0	2.088e-6
3.023e+0	2.088e-6
3.024e+0	2.119e-6
3.025e+0	2.088e-6
3.026e+0	2.088e-6
3.027e+0	2.088e-6
3.028e+0	2.088e-6
3.029e+0	2.088e-6
3.030e+0	2.088e-6
3.031e+0	2.088e-6
3.032e+0	2.088e-6
3.033e+0	2.088e-6
3.034e+0	2.088e-6
3.035e+0	2.088e-6
3.036e+0	2.088e-6
3.037e+0	2.088e-6
3.038e+0	2.088e-6
3.039e+0	2.088e-6
3.040e+0	2.088e-6
3.041e+0	2.088e-6
3.042e+0	2.058e-6
3.043e+0	2.088e-6
3.044e+0	2.088e-6
3.045e+0	2.088e-6
3.046e+0	2.088e-6
3.047e+0	2.088e-6
3.048e+0	2.088e-6
3.049e+0	2.088e-6
3.050e+0	2.088e-6
3.051e+0	2.088e-6
3.052e+0	2.088e-6
3.053e+0	2.119e-6
3.054e+0	2.088e-6
3.055e+0	2.088e-6
3.056e+0	2.088e-6
3.057e+0	2.088e-6
3.058e+0	2.088e-6
3.059e+0	2.088e-6
3.060e+0	2.088e-6
3.061e+0	2.088e-6
3.062e+0	2.088e-6
3.063e+0	2.088e-6
3.064e+0	2.088e-6
3.065e+0	2.088e-6
3.066e+0	2.088e-6
3.067e+0	2.088e-6
3.068e+0	2.088e-6
3.069e+0	2.088e-6
3.070e+0	2.088e-6
3.071e+0	2.088e-6
3.072e+0	2.058e-6
3.073e+0	2.088e-6
3.074e+0	2.088e-6
3.075e+0	2.088e-6
3.076e+0	2.088e-6
3.077e+0	2.088e-6
3.078e+0	2.088e-6
3.079e+0	2.088e-6
3.080e+0	2.088e-6
3.081e+0	2.058e-6
3.082e+0	2.088e-6
3.083e+0	2.088e-6
3.084e+0	2.088e-6
3.085e+0	2.088e-6
3.086e+0	2.088e-6
3.087e+0	2.088e-6
3.088e+0	2.088e-6
3.089e+0	2.119e-6
3.090e+0	2.088e-6
3.091e+0	2.088e-6
3.092e+0	2.088e-6
3.093e+0	2.088e-6
3.094e+0	2.088e-6
3.095e+0	2.088e-6
3.096e+0	2.088e-6
3.097e+0	2.088e-6
3.098e+0	2.088e-6
3.099e+0	2.088e-6
3.100e+0	2.088e-6
3.101e+0	2.088e-6
3.102e+0	2.088e-6
3.103e+0	2.088e-6
3.104e+0	2.058e-6
3.105e+0	2.088e-6
3.106e+0	2.088e-6
3.107e+0	2.088e-6
3.108e+0	2.058e-6
3.109e+0	2.088e-6
3.110e+0	2.088e-6
3.111e+0	2.088e-6
3.112e+0	2.088e-6
3.113e+0	2.088e-6
3.114e+0	2.058e-6
3.115e+0	2.058e-6
3.116e+0	2.088e-6
3.117e+0	2.119e-6
3.118e+0	2.088e-6
3.119e+0	2.058e-6
3.120e+0	2.088e-6
3.121e+0	2.088e-6
3.122e+0	2.119e-6
3.123e+0	2.088e-6
3.124e+0	2.088e-6
3.125e+0	2.088e-6
3.126e+0	2.088e-6
3.127e+0	2.058e-6
3.128e+0	2.088e-6
3.129e+0	2.088e-6
3.130e+0	2.088e-6
3.131e+0	2.058e-6
3.132e+0	2.088e-6
3.133e+0	2.088e-6
3.134e+0	2.088e-6
3.135e+0	2.088e-6
3.136e+0	2.088e-6
3.137e+0	2.058e-6
3.138e+0	2.088e-6
3.139e+0	2.088e-6
3.140e+0	2.088e-6
3.141e+0	2.088e-6
3.142e+0	2.088e-6
3.143e+0	2.088e-6
3.144e+0	2.088e-6
3.145e+0	2.088e-6
3.146e+0	2.088e-6
3.147e+0	2.088e-6
3.148e+0	2.088e-6
3.149e+0	2.058e-6
3.150e+0	2.088e-6
3.151e+0	2.088e-6
3.152e+0	2.088e-6
3.153e+0	2.088e-6
3.154e+0	2.058e-6
3.155e+0	2.088e-6
3.156e+0	2.058e-6
3.157e+0	2.088e-6
3.158e+0	2.088e-6
3.159e+0	2.088e-6
3.160e+0	2.088e-6
3.161e+0	2.088e-6
3.162e+0	2.088e-6
3.163e+0	2.119e-6
3.164e+0	2.058e-6
3.165e+0	2.058e-6
3.166e+0	2.088e-6
3.167e+0	2.088e-6
3.168e+0	2.088e-6
3.169e+0	2.088e-6
3.170e+0	2.088e-6
3.171e+0	2.058e-6
3.172e+0	2.088e-6
3.173e+0	2.088e-6
3.174e+0	2.088e-6
3.175e+0	2.088e-6
3.176e+0	2.088e-6
3.177e+0	2.058e-6
3.178e+0	2.088e-6
3.179e+0	2.088e-6
3.180e+0	2.088e-6
3.181e+0	2.088e-6
3.182e+0	2.088e-6
3.183e+0	2.088e-6
3.184e+0	2.088e-6
3.185e+0	2.088e-6
3.186e+0	2.088e-6
3.187e+0	2.058e-6
3.188e+0	2.088e-6
3.189e+0	2.088e-6
3.190e+0	2.088e-6
3.191e+0	2.027e-6
3.192e+0	2.119e-6
3.193e+0	2.088e-6
3.194e+0	2.088e-6
3.195e+0	2.088e-6
3.196e+0	2.088e-6
3.197e+0	2.088e-6
3.198e+0	2.088e-6
3.199e+0	2.058e-6
3.200e+0	2.088e-6
3.201e+0	2.088e-6
3.202e+0	2.088e-6
3.203e+0	2.088e-6
3.204e+0	2.088e-6
3.205e+0	2.088e-6
3.206e+0	2.088e-6
3.207e+0	2.088e-6
3.208e+0	2.119e-6
3.209e+0	2.058e-6
3.210e+0	2.058e-6
3.211e+0	2.088e-6
3.212e+0	2.088e-6
3.213e+0	2.058e-6
3.214e+0	2.088e-6
3.215e+0	2.058e-6
3.216e+0	2.088e-6
3.217e+0	2.058e-6
3.218e+0	2.119e-6
3.219e+0	2.088e-6
3.220e+0	2.088e-6
3.221e+0	2.088e-6
3.222e+0	2.088e-6
3.223e+0	2.027e-6
3.224e+0	2.088e-6
3.225e+0	2.058e-6
3.226e+0	2.088e-6
3.227e+0	2.088e-6
3.228e+0	2.088e-6
3.229e+0	2.088e-6
3.230e+0	2.088e-6
3.231e+0	2.058e-6
3.232e+0	2.088e-6
3.233e+0	2.058e-6
3.234e+0	2.088e-6
3.235e+0	2.027e-6
3.236e+0	2.088e-6
3.237e+0	2.058e-6
3.238e+0	2.088e-6
3.239e+0	2.058e-6
3.240e+0	2.088e-6
3.241e+0	2.058e-6
3.242e+0	2.088e-6
3.243e+0	2.119e-6
3.244e+0	2.088e-6
3.245e+0	2.058e-6
3.246e+0	2.088e-6
3.247e+0	2.088e-6
3.248e+0	2.088e-6
3.249e+0	2.088e-6
3.250e+0	2.058e-6
3.251e+0	2.058e-6
3.252e+0	2.088e-6
3.253e+0	2.088e-6
3.254e+0	2.088e-6
3.255e+0	2.058e-6
3.256e+0	2.088e-6
3.257e+0	2.058e-6
3.258e+0	2.088e-6
3.259e+0	2.058e-6
3.260e+0	2.088e-6
3.261e+0	2.088e-6
3.262e+0	2.088e-6
3.263e+0	2.058e-6
3.264e+0	2.088e-6
3.265e+0	2.058e-6
3.266e+0	2.088e-6
3.267e+0	2.058e-6
3.268e+0	2.088e-6
3.269e+0	2.027e-6
3.270e+0	2.088e-6
3.271e+0	2.058e-6
3.272e+0	2.088e-6
3.273e+0	2.088e-6
3.274e+0	2.088e-6
3.275e+0	2.088e-6
3.276e+0	2.088e-6
3.277e+0	2.058e-6
3.278e+0	2.088e-6
3.279e+0	2.088e-6
3.280e+0	2.088e-6
3.281e+0	2.058e-6
3.282e+0	2.088e-6
3.283e+0	2.027e-6
3.284e+0	2.088e-6
3.285e+0	2.088e-6
3.286e+0	2.088e-6
3.287e+0	2.088e-6
3.288e+0	2.088e-6
3.289e+0	2.088e-6
3.290e+0	2.088e-6
3.291e+0	2.058e-6
3.292e+0	2.058e-6
3.293e+0	2.058e-6
3.294e+0	2.088e-6
3.295e+0	2.058e-6
3.296e+0	2.088e-6
3.297e+0	2.088e-6
3.298e+0	2.088e-6
3.299e+0	2.058e-6
3.300e+0	2.088e-6
3.301e+0	2.088e-6
3.302e+0	2.088e-6
3.303e+0	2.058e-6
3.304e+0	2.088e-6
3.305e+0	2.027e-6
3.306e+0	2.088e-6
3.307e+0	2.088e-6
3.308e+0	2.119e-6
3.309e+0	2.088e-6
3.310e+0	2.088e-6
3.311e+0	2.058e-6
3.312e+0	2.088e-6
3.313e+0	2.088e-6
3.314e+0	2.088e-6
3.315e+0	2.088e-6
3.316e+0	2.088e-6
3.317e+0	2.027e-6
3.318e+0	2.058e-6
3.319e+0	2.058e-6
3.320e+0	2.088e-6
3.321e+0	2.058e-6
3.322e+0	2.088e-6
3.323e+0	2.058e-6
3.324e+0	2.088e-6
3.325e+0	2.088e-6
3.326e+0	2.088e-6
3.327e+0	2.058e-6
3.328e+0	2.088e-6
3.329e+0	2.058e-6
3.330e+0	2.088e-6
3.331e+0	2.027e-6
3.332e+0	2.088e-6
3.333e+0	2.088e-6
3.334e+0	2.088e-6
3.335e+0	2.027e-6
3.336e+0	2.088e-6
3.337e+0	2.058e-6
3.338e+0	2.088e-6
3.339e+0	2.058e-6
3.340e+0	2.088e-6
3.341e+0	2.058e-6
3.342e+0	2.088e-6
3.343e+0	2.058e-6
3.344e+0	2.088e-6
3.345e+0	2.058e-6
3.346e+0	2.058e-6
3.347e+0	2.058e-6
3.348e+0	2.088e-6
3.349e+0	2.027e-6
3.350e+0	2.088e-6
3.351e+0	2.088e-6
3.352e+0	2.088e-6
3.353e+0	2.058e-6
3.354e+0	2.088e-6
3.355e+0	2.058e-6
3.356e+0	2.088e-6
3.357e+0	2.027e-6
3.358e+0	2.088e-6
3.359e+0	2.058e-6
3.360e+0	2.088e-6
3.361e+0	2.088e-6
3.362e+0	2.088e-6
3.363e+0	2.058e-6
3.364e+0	2.058e-6
3.365e+0	2.088e-6
3.366e+0	2.088e-6
3.367e+0	2.058e-6
3.368e+0	2.088e-6
3.369e+0	2.088e-6
3.370e+0	2.088e-6
3.371e+0	2.027e-6
3.372e+0	2.088e-6
3.373e+0	2.058e-6
3.374e+0	2.088e-6
3.375e+0	2.027e-6
3.376e+0	2.088e-6
3.377e+0	2.058e-6
3.378e+0	2.088e-6
3.379e+0	2.088e-6
3.380e+0	2.058e-6
3.381e+0	2.027e-6
3.382e+0	1.997e-6
3.383e+0	2.088e-6
3.384e+0	2.088e-6
3.385e+0	2.088e-6
3.386e+0	2.088e-6
3.387e+0	2.088e-6
3.388e+0	2.058e-6
3.389e+0	2.058e-6
3.390e+0	2.088e-6
3.391e+0	2.088e-6
3.392e+0	2.088e-6
3.393e+0	2.058e-6
3.394e+0	2.088e-6
3.395e+0	2.058e-6
3.396e+0	2.088e-6
3.397e+0	2.058e-6
3.398e+0	2.088e-6
3.399e+0	2.027e-6
3.400e+0	2.088e-6
3.401e+0	2.058e-6
3.402e+0	2.088e-6
3.403e+0	2.058e-6
3.404e+0	2.088e-6
3.405e+0	2.088e-6
3.406e+0	2.088e-6
3.407e+0	2.058e-6
3.408e+0	2.088e-6
3.409e+0	2.027e-6
3.410e+0	2.088e-6
3.411e+0	2.058e-6
3.412e+0	2.088e-6
3.413e+0	2.058e-6
3.414e+0	2.088e-6
3.415e+0	2.088e-6
3.416e+0	2.088e-6
3.417e+0	2.058e-6
3.418e+0	2.088e-6
3.419e+0	2.058e-6
3.420e+0	2.058e-6
3.421e+0	2.058e-6
3.422e+0	2.088e-6
3.423e+0	2.088e-6
3.424e+0	2.088e-6
3.425e+0	2.027e-6
3.426e+0	2.088e-6
3.427e+0	2.058e-6
3.428e+0	2.088e-6
3.429e+0	2.058e-6
3.430e+0	2.088e-6
3.431e+0	1.997e-6
3.432e+0	2.058e-6
3.433e+0	2.058e-6
3.434e+0	2.088e-6
3.435e+0	2.058e-6
3.436e+0	2.088e-6
3.437e+0	2.088e-6
3.438e+0	2.027e-6
3.439e+0	2.058e-6
3.440e+0	2.088e-6
3.441e+0	2.088e-6
3.442e+0	2.088e-6
3.443e+0	2.058e-6
3.444e+0	2.058e-6
3.445e+0	2.088e-6
3.446e+0	2.088e-6
3.447e+0	2.058e-6
3.448e+0	2.088e-6
3.449e+0	2.058e-6
3.450e+0	2.088e-6
3.451e+0	2.027e-6
3.452e+0	2.088e-6
3.453e+0	2.058e-6
3.454e+0	2.058e-6
3.455e+0	2.058e-6
3.456e+0	2.088e-6
3.457e+0	2.088e-6
3.458e+0	2.058e-6
3.459e+0	2.058e-6
3.460e+0	2.088e-6
3.461e+0	2.027e-6
3.462e+0	2.088e-6
3.463e+0	2.058e-6
3.464e+0	2.088e-6
3.465e+0	2.058e-6
3.466e+0	2.058e-6
3.467e+0	2.088e-6
3.468e+0	2.058e-6
3.469e+0	2.088e-6
3.470e+0	2.058e-6
3.471e+0	2.058e-6
3.472e+0	2.058e-6
3.473e+0	2.058e-6
3.474e+0	2.088e-6
3.475e+0	2.027e-6
3.476e+0	2.058e-6
3.477e+0	2.088e-6
3.478e+0	2.027e-6
3.479e+0	2.088e-6
3.480e+0	2.088e-6
3.481e+0	2.058e-6
3.482e+0	2.088e-6
3.483e+0	2.058e-6
3.484e+0	2.088e-6
3.485e+0	2.088e-6
3.486e+0	2.088e-6
3.487e+0	2.058e-6
3.488e+0	2.058e-6
3.489e+0	2.058e-6
3.490e+0	2.088e-6
3.491e+0	2.058e-6
3.492e+0	2.088e-6
3.493e+0	2.088e-6
3.494e+0	2.088e-6
3.495e+0	2.058e-6
3.496e+0	2.088e-6
3.497e+0	2.058e-6
3.498e+0	2.027e-6
3.499e+0	2.088e-6
3.500e+0	2.058e-6
3.501e+0	2.088e-6
3.502e+0	2.058e-6
3.503e+0	2.027e-6
3.504e+0	2.088e-6
3.505e+0	2.058e-6
3.506e+0	2.088e-6
3.507e+0	2.088e-6
3.508e+0	2.088e-6
3.509e+0	2.058e-6
3.510e+0	2.027e-6
3.511e+0	2.088e-6
3.512e+0	2.058e-6
3.513e+0	2.058e-6
3.514e+0	2.027e-6
3.515e+0	2.027e-6
3.516e+0	2.058e-6
3.517e+0	2.058e-6
3.518e+0	2.088e-6
3.519e+0	2.058e-6
3.520e+0	2.027e-6
3.521e+0	2.088e-6
3.522e+0	2.088e-6
3.523e+0	2.058e-6
3.524e+0	2.088e-6
3.525e+0	2.058e-6
3.526e+0	2.088e-6
3.527e+0	2.027e-6
3.528e+0	2.088e-6
3.529e+0	2.027e-6
3.530e+0	2.058e-6
3.531e+0	2.058e-6
3.532e+0	1.997e-6
3.533e+0	2.058e-6
3.534e+0	2.088e-6
3.535e+0	2.058e-6
3.536e+0	2.058e-6
3.537e+0	2.027e-6
3.538e+0	2.058e-6
3.539e+0	2.058e-6
3.540e+0	2.088e-6
3.541e+0	2.088e-6
3.542e+0	2.088e-6
3.543e+0	2.058e-6
3.544e+0	2.058e-6
3.545e+0	2.058e-6
3.546e+0	2.088e-6
3.547e+0	2.058e-6
3.548e+0	2.058e-6
3.549e+0	2.058e-6
3.550e+0	2.088e-6
3.551e+0	2.027e-6
3.552e+0	2.058e-6
3.553e+0	2.058e-6
3.554e+0	2.027e-6
3.555e+0	2.088e-6
3.556e+0	2.088e-6
3.557e+0	2.058e-6
3.558e+0	2.088e-6
3.559e+0	2.088e-6
3.560e+0	2.027e-6
3.561e+0	2.088e-6
3.562e+0	2.088e-6
3.563e+0	2.088e-6
3.564e+0	2.058e-6
3.565e+0	2.027e-6
3.566e+0	2.058e-6
3.567e+0	2.088e-6
3.568e+0	2.058e-6
3.569e+0	2.058e-6
3.570e+0	2.088e-6
3.571e+0	2.088e-6
3.572e+0	2.027e-6
3.573e+0	2.058e-6
3.574e+0	2.058e-6
3.575e+0	2.058e-6
3.576e+0	2.088e-6
3.577e+0	2.027e-6
3.578e+0	2.058e-6
3.579e+0	2.058e-6
3.580e+0	2.088e-6
3.581e+0	2.088e-6
3.582e+0	2.058e-6
3.583e+0	2.088e-6
3.584e+0	2.058e-6
3.585e+0	2.088e-6
3.586e+0	2.088e-6
3.587e+0	2.027e-6
3.588e+0	2.058e-6
3.589e+0	2.058e-6
3.590e+0	2.088e-6
3.591e+0	2.088e-6
3.592e+0	2.058e-6
3.593e+0	2.058e-6
3.594e+0	2.027e-6
3.595e+0	2.027e-6
3.596e+0	2.088e-6
3.597e+0	2.058e-6
3.598e+0	2.058e-6
3.599e+0	2.088e-6
3.600e+0	2.119e-6
3.601e+0	2.088e-6
3.602e+0	2.058e-6
3.603e+0	2.058e-6
3.604e+0	2.058e-6
3.605e+0	2.027e-6
3.606e+0	2.058e-6
3.607e+0	1.997e-6
3.608e+0	2.058e-6
3.609e+0	2.088e-6
3.610e+0	2.088e-6
3.611e+0	2.058e-6
3.612e+0	2.088e-6
3.613e+0	2.027e-6
3.614e+0	2.058e-6
3.615e+0	1.997e-6
3.616e+0	2.027e-6
3.617e+0	2.088e-6
3.618e+0	2.058e-6
3.619e+0	2.088e-6
3.620e+0	2.058e-6
3.621e+0	2.058e-6
3.622e+0	2.058e-6
3.623e+0	2.088e-6
3.624e+0	2.058e-6
3.625e+0	2.027e-6
3.626e+0	2.058e-6
3.627e+0	2.088e-6
3.628e+0	2.058e-6
3.629e+0	2.088e-6
3.630e+0	2.088e-6
3.631e+0	2.088e-6
3.632e+0	2.088e-6
3.633e+0	2.027e-6
3.634e+0	1.997e-6
3.635e+0	2.027e-6
3.636e+0	2.058e-6
3.637e+0	1.997e-6
3.638e+0	2.027e-6
3.639e+0	2.088e-6
3.640e+0	2.058e-6
3.641e+0	2.058e-6
3.642e+0	2.027e-6
3.643e+0	2.058e-6
3.644e+0	2.088e-6
3.645e+0	2.088e-6
3.646e+0	2.027e-6
3.647e+0	2.088e-6
3.648e+0	2.058e-6
3.649e+0	2.027e-6
3.650e+0	2.088e-6
3.651e+0	2.088e-6
3.652e+0	2.058e-6
3.653e+0	2.027e-6
3.654e+0	2.058e-6
3.655e+0	2.027e-6
3.656e+0	2.058e-6
3.657e+0	2.058e-6
3.658e+0	2.058e-6
3.659e+0	2.027e-6
3.660e+0	2.058e-6
3.661e+0	2.058e-6
3.662e+0	2.058e-6
3.663e+0	2.058e-6
3.664e+0	2.058e-6
3.665e+0	2.027e-6
3.666e+0	2.088e-6
3.667e+0	2.058e-6
3.668e+0	2.058e-6
3.669e+0	1.997e-6
3.670e+0	2.088e-6
3.671e+0	2.058e-6
3.672e+0	2.058e-6
3.673e+0	2.058e-6
3.674e+0	2.058e-6
3.675e+0	2.027e-6
3.676e+0	2.058e-6
3.677e+0	1.997e-6
3.678e+0	2.027e-6
3.679e+0	2.058e-6
3.680e+0	1.997e-6
3.681e+0	2.058e-6
3.682e+0	2.058e-6
3.683e+0	2.058e-6
3.684e+0	1.997e-6
3.685e+0	2.058e-6
3.686e+0	2.058e-6
3.687e+0	2.058e-6
3.688e+0	1.997e-6
3.689e+0	2.058e-6
3.690e+0	2.027e-6
3.691e+0	2.027e-6
3.692e+0	2.088e-6
3.693e+0	2.027e-6
3.694e+0	2.088e-6
3.695e+0	2.058e-6
3.696e+0	2.088e-6
3.697e+0	2.088e-6
3.698e+0	2.058e-6
3.699e+0	2.027e-6
3.700e+0	2.027e-6
3.701e+0	2.027e-6
3.702e+0	2.088e-6
3.703e+0	2.027e-6
3.704e+0	2.058e-6
3.705e+0	1.997e-6
3.706e+0	2.058e-6
3.707e+0	2.058e-6
3.708e+0	2.058e-6
3.709e+0	1.997e-6
3.710e+0	2.027e-6
3.711e+0	2.058e-6
3.712e+0	2.027e-6
3.713e+0	2.088e-6
3.714e+0	2.027e-6
3.715e+0	1.997e-6
3.716e+0	2.058e-6
3.717e+0	2.058e-6
3.718e+0	2.058e-6
3.719e+0	2.058e-6
3.720e+0	2.027e-6
3.721e+0	2.058e-6
3.722e+0	2.058e-6
3.723e+0	2.058e-6
3.724e+0	2.027e-6
3.725e+0	2.058e-6
3.726e+0	2.027e-6
3.727e+0	2.027e-6
3.728e+0	2.058e-6
3.729e+0	2.058e-6
3.730e+0	2.088e-6
3.731e+0	2.058e-6
3.732e+0	2.088e-6
3.733e+0	2.058e-6
3.734e+0	2.058e-6
3.735e+0	2.058e-6
3.736e+0	2.058e-6
3.737e+0	2.058e-6
3.738e+0	2.058e-6
3.739e+0	2.088e-6
3.740e+0	2.088e-6
3.741e+0	1.997e-6
3.742e+0	2.088e-6
3.743e+0	2.058e-6
3.744e+0	2.058e-6
3.745e+0	1.997e-6
3.746e+0	2.058e-6
3.747e+0	2.088e-6
3.748e+0	1.997e-6
3.749e+0	2.027e-6
3.750e+0	2.058e-6
3.751e+0	1.997e-6
3.752e+0	2.027e-6
3.753e+0	2.027e-6
3.754e+0	2.027e-6
3.755e+0	2.058e-6
3.756e+0	2.058e-6
3.757e+0	2.088e-6
3.758e+0	2.058e-6
3.759e+0	2.027e-6
3.760e+0	2.058e-6
3.761e+0	2.058e-6
3.762e+0	1.997e-6
3.763e+0	2.027e-6
3.764e+0	2.088e-6
3.765e+0	2.058e-6
3.766e+0	2.088e-6
3.767e+0	2.027e-6
3.768e+0	2.027e-6
3.769e+0	2.027e-6
3.770e+0	2.027e-6
3.771e+0	2.088e-6
3.772e+0	2.058e-6
3.773e+0	2.088e-6
3.774e+0	2.058e-6
3.775e+0	2.058e-6
3.776e+0	1.997e-6
3.777e+0	2.027e-6
3.778e+0	2.088e-6
3.779e+0	2.058e-6
3.780e+0	2.088e-6
3.781e+0	2.058e-6
3.782e+0	2.027e-6
3.783e+0	2.088e-6
3.784e+0	2.088e-6
3.785e+0	2.027e-6
3.786e+0	1.966e-6
3.787e+0	2.058e-6
3.788e+0	2.058e-6
3.789e+0	2.058e-6
3.790e+0	2.058e-6
3.791e+0	2.027e-6
3.792e+0	2.027e-6
3.793e+0	1.966e-6
3.794e+0	2.058e-6
3.795e+0	2.027e-6
3.796e+0	2.088e-6
3.797e+0	2.088e-6
3.798e+0	2.027e-6
3.799e+0	2.027e-6
3.800e+0	2.088e-6
3.801e+0	2.058e-6
3.802e+0	2.027e-6
3.803e+0	1.997e-6
3.804e+0	1.966e-6
3.805e+0	1.997e-6
3.806e+0	2.088e-6
3.807e+0	2.027e-6
3.808e+0	2.058e-6
3.809e+0	1.966e-6
3.810e+0	1.997e-6
3.811e+0	2.027e-6
3.812e+0	2.088e-6
3.813e+0	2.027e-6
3.814e+0	2.027e-6
3.815e+0	1.935e-6
3.816e+0	2.088e-6
3.817e+0	1.935e-6
3.818e+0	2.088e-6
3.819e+0	1.905e-6
3.820e+0	2.027e-6
3.821e+0	2.027e-6
3.822e+0	2.027e-6
3.823e+0	2.027e-6
3.824e+0	2.027e-6
3.825e+0	2.058e-6
3.826e+0	1.997e-6
3.827e+0	1.997e-6
3.828e+0	1.997e-6
3.829e+0	2.058e-6
3.830e+0	2.058e-6
3.831e+0	1.997e-6
3.832e+0	1.966e-6
3.833e+0	2.027e-6
3.834e+0	2.058e-6
3.835e+0	2.058e-6
3.836e+0	2.058e-6
3.837e+0	2.027e-6
3.838e+0	2.027e-6
3.839e+0	2.058e-6
3.840e+0	2.058e-6
3.841e+0	1.935e-6
3.842e+0	2.088e-6
3.843e+0	2.027e-6
3.844e+0	2.088e-6
3.845e+0	1.935e-6
3.846e+0	2.027e-6
3.847e+0	2.027e-6
3.848e+0	1.935e-6
3.849e+0	2.058e-6
3.850e+0	2.027e-6
3.851e+0	2.088e-6
3.852e+0	2.058e-6
3.853e+0	2.027e-6
3.854e+0	1.966e-6
3.855e+0	1.966e-6
3.856e+0	2.058e-6
3.857e+0	2.088e-6
3.858e+0	2.058e-6
3.859e+0	2.027e-6
3.860e+0	1.935e-6
3.861e+0	2.027e-6
3.862e+0	2.088e-6
3.863e+0	1.997e-6
3.864e+0	2.058e-6
3.865e+0	1.997e-6
3.866e+0	2.027e-6
3.867e+0	1.966e-6
3.868e+0	2.058e-6
3.869e+0	2.058e-6
3.870e+0	2.088e-6
3.871e+0	1.966e-6
3.872e+0	1.997e-6
3.873e+0	2.058e-6
3.874e+0	2.058e-6
3.875e+0	1.997e-6
3.876e+0	2.058e-6
3.877e+0	1.997e-6
3.878e+0	1.905e-6
3.879e+0	2.027e-6
3.880e+0	1.966e-6
3.881e+0	1.935e-6
3.882e+0	1.935e-6
3.883e+0	2.058e-6
3.884e+0	1.997e-6
3.885e+0	1.935e-6
3.886e+0	1.997e-6
3.887e+0	2.027e-6
3.888e+0	1.997e-6
3.889e+0	1.966e-6
3.890e+0	2.058e-6
3.891e+0	1.997e-6
3.892e+0	2.058e-6
3.893e+0	2.027e-6
3.894e+0	2.058e-6
3.895e+0	1.935e-6
3.896e+0	1.997e-6
3.897e+0	2.027e-6
3.898e+0	2.027e-6
3.899e+0	2.027e-6
3.900e+0	2.058e-6
3.901e+0	1.997e-6
3.902e+0	2.027e-6
3.903e+0	2.027e-6
3.904e+0	1.966e-6
3.905e+0	2.027e-6
3.906e+0	2.027e-6
3.907e+0	1.997e-6
3.908e+0	2.058e-6
3.909e+0	1.997e-6
3.910e+0	2.027e-6
3.911e+0	1.997e-6
3.912e+0	2.027e-6
3.913e+0	2.058e-6
3.914e+0	1.997e-6
3.915e+0	1.966e-6
3.916e+0	2.027e-6
3.917e+0	1.935e-6
3.918e+0	2.027e-6
3.919e+0	1.997e-6
3.920e+0	1.997e-6
3.921e+0	1.935e-6
3.922e+0	1.935e-6
3.923e+0	2.058e-6
3.924e+0	2.027e-6
3.925e+0	2.027e-6
3.926e+0	2.088e-6
3.927e+0	1.997e-6
3.928e+0	2.027e-6
3.929e+0	2.027e-6
3.930e+0	2.027e-6
3.931e+0	1.935e-6
3.932e+0	1.966e-6
3.933e+0	1.966e-6
3.934e+0	1.997e-6
3.935e+0	1.905e-6
3.936e+0	2.027e-6
3.937e+0	1.935e-6
3.938e+0	1.935e-6
3.939e+0	2.027e-6
3.940e+0	2.088e-6
3.941e+0	2.088e-6
3.942e+0	1.966e-6
3.943e+0	2.027e-6
3.944e+0	2.058e-6
3.945e+0	2.027e-6
3.946e+0	2.088e-6
3.947e+0	2.058e-6
3.948e+0	2.027e-6
3.949e+0	1.935e-6
3.950e+0	2.058e-6
3.951e+0	2.027e-6
3.952e+0	1.966e-6
3.953e+0	1.966e-6
3.954e+0	2.027e-6
3.955e+0	2.027e-6
3.956e+0	2.058e-6
3.957e+0	2.027e-6
3.958e+0	1.997e-6
3.959e+0	1.935e-6
3.960e+0	2.027e-6
3.961e+0	2.027e-6
3.962e+0	1.997e-6
3.963e+0	2.058e-6
3.964e+0	2.027e-6
3.965e+0	2.027e-6
3.966e+0	1.997e-6
3.967e+0	2.058e-6
3.968e+0	1.997e-6
3.969e+0	1.997e-6
3.970e+0	1.966e-6
3.971e+0	1.874e-6
3.972e+0	1.997e-6
3.973e+0	2.088e-6
3.974e+0	1.966e-6
3.975e+0	2.058e-6
3.976e+0	2.088e-6
3.977e+0	1.966e-6
3.978e+0	2.027e-6
3.979e+0	1.997e-6
3.980e+0	1.935e-6
3.981e+0	1.997e-6
3.982e+0	1.874e-6
3.983e+0	1.935e-6
3.984e+0	1.997e-6
3.985e+0	1.966e-6
3.986e+0	1.935e-6
3.987e+0	2.027e-6
3.988e+0	1.966e-6
3.989e+0	2.027e-6
3.990e+0	1.997e-6
3.991e+0	1.997e-6
3.992e+0	1.997e-6
3.993e+0	2.058e-6
3.994e+0	2.027e-6
3.995e+0	1.966e-6
3.996e+0	2.027e-6
3.997e+0	2.058e-6
3.998e+0	1.997e-6
3.999e+0	2.027e-6
4.000e+0	2.058e-6
4.001e+0	1.935e-6
4.002e+0	1.935e-6
4.003e+0	1.966e-6
4.004e+0	1.935e-6
4.005e+0	1.997e-6
4.006e+0	1.966e-6
4.007e+0	2.088e-6
4.008e+0	1.966e-6
4.009e+0	2.058e-6
4.010e+0	2.027e-6
4.011e+0	2.027e-6
4.012e+0	1.997e-6
4.013e+0	1.966e-6
4.014e+0	1.966e-6
4.015e+0	1.966e-6
4.016e+0	1.966e-6
4.017e+0	2.027e-6
4.018e+0	2.027e-6
4.019e+0	1.905e-6
4.020e+0	1.997e-6
4.021e+0	1.844e-6
4.022e+0	1.935e-6
4.023e+0	1.997e-6
4.024e+0	1.997e-6
4.025e+0	1.905e-6
4.026e+0	1.966e-6
4.027e+0	1.935e-6
4.028e+0	1.935e-6
4.029e+0	2.027e-6
4.030e+0	1.997e-6
4.031e+0	1.874e-6
4.032e+0	1.905e-6
4.033e+0	1.997e-6
4.034e+0	1.997e-6
4.035e+0	1.905e-6
4.036e+0	1.966e-6
4.037e+0	1.905e-6
4.038e+0	2.058e-6
4.039e+0	1.935e-6
4.040e+0	1.966e-6
4.041e+0	1.997e-6
4.042e+0	1.905e-6
4.043e+0	1.966e-6
4.044e+0	1.905e-6
4.045e+0	2.027e-6
4.046e+0	1.935e-6
4.047e+0	1.997e-6
4.048e+0	1.966e-6
4.049e+0	1.997e-6
4.050e+0	2.058e-6
4.051e+0	2.027e-6
4.052e+0	1.997e-6
4.053e+0	1.997e-6
4.054e+0	1.905e-6
4.055e+0	1.905e-6
4.056e+0	1.935e-6
4.057e+0	2.058e-6
4.058e+0	1.905e-6
4.059e+0	1.997e-6
4.060e+0	1.935e-6
4.061e+0	1.966e-6
4.062e+0	1.997e-6
4.063e+0	1.905e-6
4.064e+0	1.966e-6
4.065e+0	1.935e-6
4.066e+0	1.874e-6
4.067e+0	1.905e-6
4.068e+0	1.844e-6
4.069e+0	2.027e-6
4.070e+0	1.935e-6
4.071e+0	1.905e-6
4.072e+0	1.997e-6
4.073e+0	1.966e-6
4.074e+0	1.997e-6
4.075e+0	1.997e-6
4.076e+0	2.058e-6
4.077e+0	1.935e-6
4.078e+0	1.997e-6
4.079e+0	2.027e-6
4.080e+0	1.966e-6
4.081e+0	1.966e-6
4.082e+0	1.874e-6
4.083e+0	1.905e-6
4.084e+0	2.027e-6
4.085e+0	1.905e-6
4.086e+0	1.935e-6
4.087e+0	1.905e-6
4.088e+0	1.935e-6
4.089e+0	1.997e-6
4.090e+0	1.935e-6
4.091e+0	1.935e-6
4.092e+0	1.966e-6
4.093e+0	1.997e-6
4.094e+0	1.997e-6
4.095e+0	2.027e-6
4.096e+0	2.058e-6
4.097e+0	1.966e-6
4.098e+0	1.966e-6
4.099e+0	1.935e-6
4.100e+0	1.935e-6
4.101e+0	1.813e-6
4.102e+0	2.027e-6
4.103e+0	1.935e-6
4.104e+0	1.966e-6
4.105e+0	1.966e-6
4.106e+0	1.997e-6
4.107e+0	1.935e-6
4.108e+0	1.997e-6
4.109e+0	1.935e-6
4.110e+0	1.935e-6
4.111e+0	2.027e-6
4.112e+0	1.905e-6
4.113e+0	2.088e-6
4.114e+0	1.966e-6
4.115e+0	1.844e-6
4.116e+0	2.027e-6
4.117e+0	1.935e-6
4.118e+0	1.905e-6
4.119e+0	1.997e-6
4.120e+0	1.966e-6
4.121e+0	1.966e-6
4.122e+0	2.027e-6
4.123e+0	1.997e-6
4.124e+0	1.935e-6
4.125e+0	1.874e-6
4.126e+0	1.844e-6
4.127e+0	1.905e-6
4.128e+0	1.997e-6
4.129e+0	1.874e-6
4.130e+0	1.905e-6
4.131e+0	1.874e-6
4.132e+0	1.844e-6
4.133e+0	1.966e-6
4.134e+0	1.905e-6
4.135e+0	1.966e-6
4.136e+0	1.935e-6
4.137e+0	1.813e-6
4.138e+0	2.058e-6
4.139e+0	1.905e-6
4.140e+0	1.935e-6
4.141e+0	1.935e-6
4.142e+0	2.027e-6
4.143e+0	1.935e-6
4.144e+0	2.027e-6
4.145e+0	1.997e-6
4.146e+0	1.966e-6
4.147e+0	1.966e-6
4.148e+0	1.874e-6
4.149e+0	1.997e-6
4.150e+0	1.966e-6
4.151e+0	1.844e-6
4.152e+0	1.905e-6
4.153e+0	1.844e-6
4.154e+0	1.997e-6
4.155e+0	1.905e-6
4.156e+0	1.874e-6
4.157e+0	2.027e-6
4.158e+0	1.844e-6
4.159e+0	1.966e-6
4.160e+0	1.905e-6
4.161e+0	1.844e-6
4.162e+0	1.905e-6
4.163e+0	1.905e-6
4.164e+0	1.905e-6
4.165e+0	1.935e-6
4.166e+0	1.844e-6
4.167e+0	1.966e-6
4.168e+0	1.874e-6
4.169e+0	1.935e-6
4.170e+0	1.905e-6
4.171e+0	1.997e-6
4.172e+0	1.935e-6
4.173e+0	1.997e-6
4.174e+0	1.966e-6
4.175e+0	1.997e-6
4.176e+0	1.905e-6
4.177e+0	1.905e-6
4.178e+0	1.966e-6
4.179e+0	1.997e-6
4.180e+0	1.905e-6
4.181e+0	1.935e-6
4.182e+0	1.813e-6
4.183e+0	1.935e-6
4.184e+0	1.905e-6
4.185e+0	1.966e-6
4.186e+0	1.905e-6
4.187e+0	1.905e-6
4.188e+0	1.874e-6
4.189e+0	1.844e-6
4.190e+0	1.874e-6
4.191e+0	1.966e-6
4.192e+0	1.935e-6
4.193e+0	1.935e-6
4.194e+0	2.058e-6
4.195e+0	1.966e-6
4.196e+0	1.997e-6
4.197e+0	1.905e-6
4.198e+0	1.813e-6
4.199e+0	1.905e-6
4.200e+0	2.027e-6
4.201e+0	1.935e-6
4.202e+0	1.966e-6
4.203e+0	1.905e-6
4.204e+0	1.905e-6
4.205e+0	1.874e-6
4.206e+0	1.935e-6
4.207e+0	1.997e-6
4.208e+0	1.935e-6
4.209e+0	1.966e-6
4.210e+0	1.783e-6
4.211e+0	1.905e-6
4.212e+0	2.027e-6
4.213e+0	1.966e-6
4.214e+0	1.997e-6
4.215e+0	1.844e-6
4.216e+0	1.874e-6
4.217e+0	1.966e-6
4.218e+0	1.935e-6
4.219e+0	1.905e-6
4.220e+0	1.844e-6
4.221e+0	1.935e-6
4.222e+0	1.874e-6
4.223e+0	2.027e-6
4.224e+0	1.844e-6
4.225e+0	2.027e-6
4.226e+0	1.966e-6
4.227e+0	1.844e-6
4.228e+0	1.874e-6
4.229e+0	2.058e-6
4.230e+0	1.844e-6
4.231e+0	1.874e-6
4.232e+0	1.874e-6
4.233e+0	1.997e-6
4.234e+0	2.027e-6
4.235e+0	1.874e-6
4.236e+0	1.905e-6
4.237e+0	1.905e-6
4.238e+0	1.844e-6
4.239e+0	1.997e-6
4.240e+0	1.935e-6
4.241e+0	1.874e-6
4.242e+0	1.935e-6
4.243e+0	1.874e-6
4.244e+0	1.997e-6
4.245e+0	2.027e-6
4.246e+0	2.027e-6
4.247e+0	1.905e-6
4.248e+0	1.966e-6
4.249e+0	1.905e-6
4.250e+0	1.905e-6
4.251e+0	2.027e-6
4.252e+0	1.935e-6
4.253e+0	1.783e-6
4.254e+0	1.935e-6
4.255e+0	1.905e-6
4.256e+0	1.935e-6
4.257e+0	1.966e-6
4.258e+0	1.783e-6
4.259e+0	1.905e-6
4.260e+0	1.966e-6
4.261e+0	1.905e-6
4.262e+0	1.905e-6
4.263e+0	1.905e-6
4.264e+0	1.874e-6
4.265e+0	1.874e-6
4.266e+0	1.966e-6
4.267e+0	1.966e-6
4.268e+0	1.905e-6
4.269e+0	1.844e-6
4.270e+0	1.966e-6
4.271e+0	1.905e-6
4.272e+0	1.905e-6
4.273e+0	1.966e-6
4.274e+0	1.813e-6
4.275e+0	1.935e-6
4.276e+0	1.997e-6
4.277e+0	1.905e-6
4.278e+0	1.935e-6
4.279e+0	1.905e-6
4.280e+0	1.905e-6
4.281e+0	1.997e-6
4.282e+0	1.874e-6
4.283e+0	1.905e-6
4.284e+0	1.844e-6
4.285e+0	1.874e-6
4.286e+0	1.813e-6
4.287e+0	1.844e-6
4.288e+0	1.874e-6
4.289e+0	1.935e-6
4.290e+0	1.997e-6
4.291e+0	1.783e-6
4.292e+0	1.935e-6
4.293e+0	1.813e-6
4.294e+0	1.966e-6
4.295e+0	1.935e-6
4.296e+0	1.935e-6
4.297e+0	1.935e-6
4.298e+0	1.783e-6
4.299e+0	1.905e-6
4.300e+0	1.874e-6
4.301e+0	1.874e-6
4.302e+0	1.905e-6
4.303e+0	1.874e-6
4.304e+0	1.844e-6
4.305e+0	1.966e-6
4.306e+0	1.935e-6
4.307e+0	1.905e-6
4.308e+0	1.844e-6
4.309e+0	1.874e-6
4.310e+0	1.844e-6
4.311e+0	1.935e-6
4.312e+0	1.997e-6
4.313e+0	1.844e-6
4.314e+0	1.844e-6
4.315e+0	1.844e-6
4.316e+0	1.874e-6
4.317e+0	1.813e-6
4.318e+0	1.966e-6
4.319e+0	1.905e-6
4.320e+0	1.905e-6
4.321e+0	1.874e-6
4.322e+0	1.874e-6
4.323e+0	1.966e-6
4.324e+0	1.844e-6
4.325e+0	1.997e-6
4.326e+0	1.844e-6
4.327e+0	1.966e-6
4.328e+0	1.874e-6
4.329e+0	2.027e-6
4.330e+0	1.905e-6
4.331e+0	1.844e-6
4.332e+0	1.874e-6
4.333e+0	1.783e-6
4.334e+0	1.905e-6
4.335e+0	1.935e-6
4.336e+0	1.935e-6
4.337e+0	1.813e-6
4.338e+0	1.905e-6
4.339e+0	1.997e-6
4.340e+0	1.966e-6
4.341e+0	1.905e-6
4.342e+0	1.874e-6
4.343e+0	1.874e-6
4.344e+0	1.905e-6
4.345e+0	1.966e-6
4.346e+0	1.966e-6
4.347e+0	1.905e-6
4.348e+0	1.691e-6
4.349e+0	1.813e-6
4.350e+0	1.905e-6
4.351e+0	1.813e-6
4.352e+0	1.844e-6
4.353e+0	1.874e-6
4.354e+0	1.905e-6
4.355e+0	1.874e-6
4.356e+0	1.935e-6
4.357e+0	1.935e-6
4.358e+0	1.935e-6
4.359e+0	1.935e-6
4.360e+0	1.844e-6
4.361e+0	1.874e-6
4.362e+0	1.905e-6
4.363e+0	1.905e-6
4.364e+0	1.966e-6
4.365e+0	1.844e-6
4.366e+0	2.027e-6
4.367e+0	1.935e-6
4.368e+0	1.997e-6
4.369e+0	1.844e-6
4.370e+0	1.813e-6
4.371e+0	1.844e-6
4.372e+0	1.905e-6
4.373e+0	1.935e-6
4.374e+0	1.874e-6
4.375e+0	1.874e-6
4.376e+0	1.874e-6
4.377e+0	1.905e-6
4.378e+0	1.966e-6
4.379e+0	1.966e-6
4.380e+0	1.966e-6
4.381e+0	1.813e-6
4.382e+0	1.905e-6
4.383e+0	1.935e-6
4.384e+0	1.874e-6
4.385e+0	1.905e-6
4.386e+0	1.874e-6
4.387e+0	1.844e-6
4.388e+0	1.874e-6
4.389e+0	1.874e-6
4.390e+0	1.966e-6
4.391e+0	1.905e-6
4.392e+0	1.935e-6
4.393e+0	1.935e-6
4.394e+0	1.844e-6
4.395e+0	1.905e-6
4.396e+0	1.966e-6
4.397e+0	1.935e-6
4.398e+0	1.813e-6
4.399e+0	1.874e-6
4.400e+0	1.874e-6
4.401e+0	1.874e-6
4.402e+0	1.935e-6
4.403e+0	1.905e-6
4.404e+0	1.874e-6
4.405e+0	1.874e-6
4.406e+0	1.935e-6
4.407e+0	1.966e-6
4.408e+0	1.935e-6
4.409e+0	1.874e-6
4.410e+0	1.752e-6
4.411e+0	1.935e-6
4.412e+0	1.966e-6
4.413e+0	1.813e-6
4.414e+0	1.874e-6
4.415e+0	1.905e-6
4.416e+0	1.997e-6
4.417e+0	1.844e-6
4.418e+0	1.783e-6
4.419e+0	1.874e-6
4.420e+0	1.874e-6
4.421e+0	1.874e-6
4.422e+0	1.997e-6
4.423e+0	1.966e-6
4.424e+0	1.874e-6
4.425e+0	1.813e-6
4.426e+0	1.905e-6
4.427e+0	1.997e-6
4.428e+0	1.935e-6
4.429e+0	1.783e-6
4.430e+0	1.935e-6
4.431e+0	1.813e-6
4.432e+0	1.844e-6
4.433e+0	2.027e-6
4.434e+0	1.844e-6
4.435e+0	1.722e-6
4.436e+0	1.783e-6
4.437e+0	1.874e-6
4.438e+0	1.844e-6
4.439e+0	1.935e-6
4.440e+0	1.844e-6
4.441e+0	1.935e-6
4.442e+0	1.966e-6
4.443e+0	1.752e-6
4.444e+0	1.905e-6
4.445e+0	1.783e-6
4.446e+0	1.935e-6
4.447e+0	1.874e-6
4.448e+0	1.752e-6
4.449e+0	1.783e-6
4.450e+0	1.966e-6
4.451e+0	1.935e-6
4.452e+0	1.844e-6
4.453e+0	1.966e-6
4.454e+0	1.783e-6
4.455e+0	1.783e-6
4.456e+0	1.997e-6
4.457e+0	1.752e-6
4.458e+0	1.752e-6
4.459e+0	1.844e-6
4.460e+0	1.905e-6
4.461e+0	1.905e-6
4.462e+0	1.935e-6
4.463e+0	1.997e-6
4.464e+0	1.935e-6
4.465e+0	1.752e-6
4.466e+0	1.813e-6
4.467e+0	1.905e-6
4.468e+0	1.874e-6
4.469e+0	1.905e-6
4.470e+0	1.905e-6
4.471e+0	1.691e-6
4.472e+0	1.935e-6
4.473e+0	1.874e-6
4.474e+0	1.844e-6
4.475e+0	1.752e-6
4.476e+0	1.783e-6
4.477e+0	1.935e-6
4.478e+0	1.844e-6
4.479e+0	1.844e-6
4.480e+0	1.905e-6
4.481e+0	1.752e-6
4.482e+0	1.783e-6
4.483e+0	1.752e-6
4.484e+0	1.905e-6
4.485e+0	1.935e-6
4.486e+0	1.935e-6
4.487e+0	1.752e-6
4.488e+0	1.874e-6
4.489e+0	1.844e-6
4.490e+0	1.813e-6
4.491e+0	1.844e-6
4.492e+0	1.783e-6
4.493e+0	1.813e-6
4.494e+0	1.905e-6
4.495e+0	1.935e-6
4.496e+0	1.752e-6
4.497e+0	1.783e-6
4.498e+0	1.783e-6
4.499e+0	1.844e-6
4.500e+0	1.813e-6
4.501e+0	1.935e-6
4.502e+0	1.905e-6
4.503e+0	1.935e-6
4.504e+0	1.722e-6
4.505e+0	1.874e-6
4.506e+0	1.905e-6
4.507e+0	1.783e-6
4.508e+0	1.966e-6
4.509e+0	1.905e-6
4.510e+0	1.813e-6
4.511e+0	1.874e-6
4.512e+0	1.844e-6
4.513e+0	1.813e-6
4.514e+0	1.905e-6
4.515e+0	1.783e-6
4.516e+0	1.752e-6
4.517e+0	1.905e-6
4.518e+0	1.752e-6
4.519e+0	1.783e-6
4.520e+0	1.783e-6
4.521e+0	1.844e-6
4.522e+0	1.783e-6
4.523e+0	1.752e-6
4.524e+0	1.874e-6
4.525e+0	1.783e-6
4.526e+0	1.935e-6
4.527e+0	1.844e-6
4.528e+0	1.752e-6
4.529e+0	1.783e-6
4.530e+0	1.661e-6
4.531e+0	1.783e-6
4.532e+0	1.783e-6
4.533e+0	1.844e-6
4.534e+0	1.783e-6
4.535e+0	1.783e-6
4.536e+0	1.844e-6
4.537e+0	1.752e-6
4.538e+0	1.935e-6
4.539e+0	1.844e-6
4.540e+0	1.874e-6
4.541e+0	1.752e-6
4.542e+0	1.844e-6
4.543e+0	1.752e-6
4.544e+0	1.874e-6
4.545e+0	1.752e-6
4.546e+0	1.844e-6
4.547e+0	1.844e-6
4.548e+0	1.722e-6
4.549e+0	1.844e-6
4.550e+0	1.813e-6
4.551e+0	1.752e-6
4.552e+0	1.813e-6
4.553e+0	1.752e-6
4.554e+0	1.691e-6
4.555e+0	1.722e-6
4.556e+0	1.874e-6
4.557e+0	1.783e-6
4.558e+0	1.844e-6
4.559e+0	1.783e-6
4.560e+0	1.905e-6
4.561e+0	1.874e-6
4.562e+0	1.874e-6
4.563e+0	1.722e-6
4.564e+0	1.752e-6
4.565e+0	1.813e-6
4.566e+0	1.935e-6
4.567e+0	1.813e-6
4.568e+0	1.813e-6
4.569e+0	1.783e-6
4.570e+0	1.752e-6
4.571e+0	1.844e-6
4.572e+0	1.844e-6
4.573e+0	1.813e-6
4.574e+0	1.874e-6
4.575e+0	1.844e-6
4.576e+0	1.844e-6
4.577e+0	1.874e-6
4.578e+0	1.813e-6
4.579e+0	1.813e-6
4.580e+0	1.905e-6
4.581e+0	1.752e-6
4.582e+0	1.752e-6
4.583e+0	1.722e-6
4.584e+0	1.661e-6
4.585e+0	1.874e-6
4.586e+0	1.905e-6
4.587e+0	1.752e-6
4.588e+0	1.813e-6
4.589e+0	1.966e-6
4.590e+0	1.844e-6
4.591e+0	1.783e-6
4.592e+0	1.905e-6
4.593e+0	1.691e-6
4.594e+0	1.722e-6
4.595e+0	1.844e-6
4.596e+0	1.783e-6
4.597e+0	1.630e-6
4.598e+0	1.722e-6
4.599e+0	1.783e-6
4.600e+0	1.874e-6
4.601e+0	1.844e-6
4.602e+0	1.752e-6
4.603e+0	1.844e-6
4.604e+0	1.752e-6
4.605e+0	1.844e-6
4.606e+0	1.722e-6
4.607e+0	1.905e-6
4.608e+0	1.752e-6
4.609e+0	1.844e-6
4.610e+0	1.844e-6
4.611e+0	1.874e-6
4.612e+0	1.874e-6
4.613e+0	1.752e-6
4.614e+0	1.752e-6
4.615e+0	1.783e-6
4.616e+0	1.874e-6
4.617e+0	1.844e-6
4.618e+0	1.844e-6
4.619e+0	1.874e-6
4.620e+0	1.722e-6
4.621e+0	1.813e-6
4.622e+0	1.844e-6
4.623e+0	1.935e-6
4.624e+0	1.844e-6
4.625e+0	1.813e-6
4.626e+0	1.752e-6
4.627e+0	1.905e-6
4.628e+0	1.722e-6
4.629e+0	1.722e-6
4.630e+0	1.813e-6
4.631e+0	1.813e-6
4.632e+0	1.691e-6
4.633e+0	1.813e-6
4.634e+0	1.783e-6
4.635e+0	1.783e-6
4.636e+0	1.844e-6
4.637e+0	1.752e-6
4.638e+0	1.752e-6
4.639e+0	1.783e-6
4.640e+0	1.813e-6
4.641e+0	1.752e-6
4.642e+0	1.783e-6
4.643e+0	1.691e-6
4.644e+0	1.905e-6
4.645e+0	1.844e-6
4.646e+0	1.874e-6
4.647e+0	1.874e-6
4.648e+0	1.722e-6
4.649e+0	1.722e-6
4.650e+0	1.722e-6
4.651e+0	1.783e-6
4.652e+0	1.783e-6
4.653e+0	1.844e-6
4.654e+0	1.813e-6
4.655e+0	1.813e-6
4.656e+0	1.874e-6
4.657e+0	1.783e-6
4.658e+0	1.813e-6
4.659e+0	1.813e-6
4.660e+0	1.722e-6
4.661e+0	1.783e-6
4.662e+0	1.905e-6
4.663e+0	1.783e-6
4.664e+0	1.752e-6
4.665e+0	1.722e-6
4.666e+0	1.844e-6
4.667e+0	1.874e-6
4.668e+0	1.752e-6
4.669e+0	1.783e-6
4.670e+0	1.783e-6
4.671e+0	1.722e-6
4.672e+0	1.844e-6
4.673e+0	1.844e-6
4.674e+0	1.813e-6
4.675e+0	1.783e-6
4.676e+0	1.752e-6
4.677e+0	1.844e-6
4.678e+0	1.874e-6
4.679e+0	1.813e-6
4.680e+0	1.844e-6
4.681e+0	1.783e-6
4.682e+0	1.813e-6
4.683e+0	1.844e-6
4.684e+0	1.752e-6
4.685e+0	1.813e-6
4.686e+0	1.783e-6
4.687e+0	1.905e-6
4.688e+0	1.905e-6
4.689e+0	1.722e-6
4.690e+0	1.844e-6
4.691e+0	1.752e-6
4.692e+0	1.661e-6
4.693e+0	1.783e-6
4.694e+0	1.813e-6
4.695e+0	1.783e-6
4.696e+0	1.813e-6
4.697e+0	1.783e-6
4.698e+0	1.691e-6
4.699e+0	1.844e-6
4.700e+0	1.752e-6
4.701e+0	1.752e-6
4.702e+0	1.844e-6
4.703e+0	1.783e-6
4.704e+0	1.752e-6
4.705e+0	1.752e-6
4.706e+0	1.783e-6
4.707e+0	1.783e-6
4.708e+0	1.783e-6
4.709e+0	1.935e-6
4.710e+0	1.752e-6
4.711e+0	1.752e-6
4.712e+0	1.935e-6
4.713e+0	1.905e-6
4.714e+0	1.783e-6
4.715e+0	1.752e-6
4.716e+0	1.722e-6
4.717e+0	1.752e-6
4.718e+0	1.691e-6
4.719e+0	1.783e-6
4.720e+0	1.752e-6
4.721e+0	1.813e-6
4.722e+0	1.722e-6
4.723e+0	1.813e-6
4.724e+0	1.752e-6
4.725e+0	1.752e-6
4.726e+0	1.661e-6
4.727e+0	1.752e-6
4.728e+0	1.752e-6
4.729e+0	1.661e-6
4.730e+0	1.722e-6
4.731e+0	1.783e-6
4.732e+0	1.691e-6
4.733e+0	1.752e-6
4.734e+0	1.691e-6
4.735e+0	1.752e-6
4.736e+0	1.661e-6
4.737e+0	1.752e-6
4.738e+0	1.752e-6
4.739e+0	1.783e-6
4.740e+0	1.752e-6
4.741e+0	1.691e-6
4.742e+0	1.813e-6
4.743e+0	1.874e-6
4.744e+0	1.752e-6
4.745e+0	1.905e-6
4.746e+0	1.874e-6
4.747e+0	1.844e-6
4.748e+0	1.783e-6
4.749e+0	1.630e-6
4.750e+0	1.813e-6
4.751e+0	1.661e-6
4.752e+0	1.905e-6
4.753e+0	1.722e-6
4.754e+0	1.722e-6
4.755e+0	1.783e-6
4.756e+0	1.752e-6
4.757e+0	1.783e-6
4.758e+0	1.722e-6
4.759e+0	1.752e-6
4.760e+0	1.783e-6
4.761e+0	1.752e-6
4.762e+0	1.874e-6
4.763e+0	1.844e-6
4.764e+0	1.691e-6
4.765e+0	1.691e-6
4.766e+0	1.752e-6
4.767e+0	1.813e-6
4.768e+0	1.844e-6
4.769e+0	1.783e-6
4.770e+0	1.813e-6
4.771e+0	1.752e-6
4.772e+0	1.691e-6
4.773e+0	1.844e-6
4.774e+0	1.844e-6
4.775e+0	1.752e-6
4.776e+0	1.752e-6
4.777e+0	1.813e-6
4.778e+0	1.844e-6
4.779e+0	1.722e-6
4.780e+0	1.783e-6
4.781e+0	1.752e-6
4.782e+0	1.752e-6
4.783e+0	1.722e-6
4.784e+0	1.783e-6
4.785e+0	1.722e-6
4.786e+0	1.783e-6
4.787e+0	1.722e-6
4.788e+0	1.844e-6
4.789e+0	1.783e-6
4.790e+0	1.752e-6
4.791e+0	1.783e-6
4.792e+0	1.722e-6
4.793e+0	1.783e-6
4.794e+0	1.844e-6
4.795e+0	1.630e-6
4.796e+0	1.905e-6
4.797e+0	1.783e-6
4.798e+0	1.783e-6
4.799e+0	1.661e-6
4.800e+0	1.783e-6
4.801e+0	1.783e-6
4.802e+0	1.905e-6
4.803e+0	1.661e-6
4.804e+0	1.783e-6
4.805e+0	1.722e-6
4.806e+0	1.722e-6
4.807e+0	1.844e-6
4.808e+0	1.722e-6
4.809e+0	1.722e-6
4.810e+0	1.844e-6
4.811e+0	1.661e-6
4.812e+0	1.783e-6
4.813e+0	1.844e-6
4.814e+0	1.752e-6
4.815e+0	1.722e-6
4.816e+0	1.691e-6
4.817e+0	1.783e-6
4.818e+0	1.661e-6
4.819e+0	1.752e-6
4.820e+0	1.752e-6
4.821e+0	1.783e-6
4.822e+0	1.722e-6
4.823e+0	1.813e-6
4.824e+0	1.722e-6
4.825e+0	1.661e-6
4.826e+0	1.661e-6
4.827e+0	1.661e-6
4.828e+0	1.813e-6
4.829e+0	1.752e-6
4.830e+0	1.844e-6
4.831e+0	1.661e-6
4.832e+0	1.722e-6
4.833e+0	1.691e-6
4.834e+0	1.874e-6
4.835e+0	1.691e-6
4.836e+0	1.722e-6
4.837e+0	1.630e-6
4.838e+0	1.752e-6
4.839e+0	1.844e-6
4.840e+0	1.874e-6
4.841e+0	1.691e-6
4.842e+0	1.844e-6
4.843e+0	1.783e-6
4.844e+0	1.752e-6
4.845e+0	1.813e-6
4.846e+0	1.844e-6
4.847e+0	1.630e-6
4.848e+0	1.752e-6
4.849e+0	1.661e-6
4.850e+0	1.783e-6
4.851e+0	1.722e-6
4.852e+0	1.691e-6
4.853e+0	1.630e-6
4.854e+0	1.722e-6
4.855e+0	1.752e-6
4.856e+0	1.813e-6
4.857e+0	1.752e-6
4.858e+0	1.783e-6
4.859e+0	1.722e-6
4.860e+0	1.783e-6
4.861e+0	1.783e-6
4.862e+0	1.813e-6
4.863e+0	1.813e-6
4.864e+0	1.783e-6
4.865e+0	1.813e-6
4.866e+0	1.691e-6
4.867e+0	1.722e-6
4.868e+0	1.691e-6
4.869e+0	1.752e-6
4.870e+0	1.783e-6
4.871e+0	1.630e-6
4.872e+0	1.844e-6
4.873e+0	1.813e-6
4.874e+0	1.783e-6
4.875e+0	1.752e-6
4.876e+0	1.752e-6
4.877e+0	1.661e-6
4.878e+0	1.844e-6
4.879e+0	1.844e-6
4.880e+0	1.722e-6
4.881e+0	1.661e-6
4.882e+0	1.813e-6
4.883e+0	1.691e-6
4.884e+0	1.783e-6
4.885e+0	1.722e-6
4.886e+0	1.691e-6
4.887e+0	1.600e-6
4.888e+0	1.630e-6
4.889e+0	1.752e-6
4.890e+0	1.813e-6
4.891e+0	1.752e-6
4.892e+0	1.752e-6
4.893e+0	1.844e-6
4.894e+0	1.783e-6
4.895e+0	1.752e-6
4.896e+0	1.905e-6
4.897e+0	1.691e-6
4.898e+0	1.691e-6
4.899e+0	1.752e-6
4.900e+0	1.722e-6
4.901e+0	1.813e-6
4.902e+0	1.661e-6
4.903e+0	1.691e-6
4.904e+0	1.691e-6
4.905e+0	1.691e-6
4.906e+0	1.783e-6
4.907e+0	1.813e-6
4.908e+0	1.722e-6
4.909e+0	1.752e-6
4.910e+0	1.783e-6
4.911e+0	1.722e-6
4.912e+0	1.783e-6
4.913e+0	1.844e-6
4.914e+0	1.722e-6
4.915e+0	1.691e-6
4.916e+0	1.752e-6
4.917e+0	1.661e-6
4.918e+0	1.752e-6
4.919e+0	1.661e-6
4.920e+0	1.722e-6
4.921e+0	1.691e-6
4.922e+0	1.691e-6
4.923e+0	1.722e-6
4.924e+0	1.844e-6
4.925e+0	1.752e-6
4.926e+0	1.844e-6
4.927e+0	1.783e-6
4.928e+0	1.752e-6
4.929e+0	1.691e-6
4.930e+0	1.630e-6
4.931e+0	1.691e-6
4.932e+0	1.691e-6
4.933e+0	1.783e-6
4.934e+0	1.783e-6
4.935e+0	1.630e-6
4.936e+0	1.722e-6
4.937e+0	1.752e-6
4.938e+0	1.752e-6
4.939e+0	1.752e-6
4.940e+0	1.722e-6
4.941e+0	1.783e-6
4.942e+0	1.691e-6
4.943e+0	1.661e-6
4.944e+0	1.722e-6
4.945e+0	1.722e-6
4.946e+0	1.783e-6
4.947e+0	1.783e-6
4.948e+0	1.691e-6
4.949e+0	1.630e-6
4.950e+0	1.783e-6
4.951e+0	1.722e-6
4.952e+0	1.813e-6
4.953e+0	1.722e-6
4.954e+0	1.691e-6
4.955e+0	1.691e-6
4.956e+0	1.752e-6
4.957e+0	1.661e-6
4.958e+0	1.783e-6
4.959e+0	1.630e-6
4.960e+0	1.722e-6
4.961e+0	1.661e-6
4.962e+0	1.691e-6
4.963e+0	1.722e-6
4.964e+0	1.722e-6
4.965e+0	1.722e-6
4.966e+0	1.691e-6
4.967e+0	1.691e-6
4.968e+0	1.691e-6
4.969e+0	1.691e-6
4.970e+0	1.752e-6
4.971e+0	1.691e-6
4.972e+0	1.722e-6
4.973e+0	1.661e-6
4.974e+0	1.600e-6
4.975e+0	1.752e-6
4.976e+0	1.783e-6
4.977e+0	1.752e-6
4.978e+0	1.783e-6
4.979e+0	1.783e-6
4.980e+0	1.661e-6
4.981e+0	1.661e-6
4.982e+0	1.691e-6
4.983e+0	1.661e-6
4.984e+0	1.691e-6
4.985e+0	1.691e-6
4.986e+0	1.752e-6
4.987e+0	1.661e-6
4.988e+0	1.661e-6
4.989e+0	1.691e-6
4.990e+0	1.691e-6
4.991e+0	1.691e-6
4.992e+0	1.661e-6
4.993e+0	1.661e-6
4.994e+0	1.691e-6
4.995e+0	1.691e-6
4.996e+0	1.691e-6
4.997e+0	1.691e-6
4.998e+0	1.722e-6
4.999e+0	1.783e-6
5.000e+0	1.783e-6
