June 5, 2018   16:00:49
Chronoamperometry
File: ca 10mm
Data Source:  Experiment
Instrument Model:  CHI614B
Header: 
Note: 

Init E (V) = 0.5
High E (V) = 0.5
Low E (V) = -0.1
Init P/N = N
Step = 1
Pulse Width (sec) = 5.
Sample Interval (s) = 1e-3
Quiet Time (sec) = 20
Sensitivity (A/V) = 1e-4

Forward:
Slp = 4.690e-5
Int = 1.414e-6
Cor = 0.99992

Time/sec, Current/A

Step 1:
1.000e-3	9.999e-4
2.000e-3	9.999e-4
3.000e-3	8.886e-4
4.000e-3	7.675e-4
5.000e-3	6.900e-4
6.000e-3	6.336e-4
7.000e-3	5.893e-4
8.000e-3	5.530e-4
9.000e-3	5.223e-4
1.000e-2	4.959e-4
1.100e-2	4.728e-4
1.200e-2	4.525e-4
1.300e-2	4.344e-4
1.400e-2	4.180e-4
1.500e-2	4.034e-4
1.600e-2	3.901e-4
1.700e-2	3.779e-4
1.800e-2	3.666e-4
1.900e-2	3.563e-4
2.000e-2	3.470e-4
2.100e-2	3.381e-4
2.200e-2	3.298e-4
2.300e-2	3.220e-4
2.400e-2	3.149e-4
2.500e-2	3.083e-4
2.600e-2	3.021e-4
2.700e-2	2.961e-4
2.800e-2	2.903e-4
2.900e-2	2.850e-4
3.000e-2	2.800e-4
3.100e-2	2.752e-4
3.200e-2	2.706e-4
3.300e-2	2.663e-4
3.400e-2	2.620e-4
3.500e-2	2.581e-4
3.600e-2	2.542e-4
3.700e-2	2.508e-4
3.800e-2	2.470e-4
3.900e-2	2.437e-4
4.000e-2	2.405e-4
4.100e-2	2.375e-4
4.200e-2	2.347e-4
4.300e-2	2.316e-4
4.400e-2	2.288e-4
4.500e-2	2.262e-4
4.600e-2	2.236e-4
4.700e-2	2.210e-4
4.800e-2	2.187e-4
4.900e-2	2.164e-4
5.000e-2	2.142e-4
5.100e-2	2.120e-4
5.200e-2	2.098e-4
5.300e-2	2.078e-4
5.400e-2	2.058e-4
5.500e-2	2.039e-4
5.600e-2	2.019e-4
5.700e-2	2.000e-4
5.800e-2	1.982e-4
5.900e-2	1.966e-4
6.000e-2	1.949e-4
6.100e-2	1.931e-4
6.200e-2	1.917e-4
6.300e-2	1.901e-4
6.400e-2	1.885e-4
6.500e-2	1.871e-4
6.600e-2	1.855e-4
6.700e-2	1.842e-4
6.800e-2	1.829e-4
6.900e-2	1.814e-4
7.000e-2	1.800e-4
7.100e-2	1.789e-4
7.200e-2	1.775e-4
7.300e-2	1.763e-4
7.400e-2	1.751e-4
7.500e-2	1.740e-4
7.600e-2	1.728e-4
7.700e-2	1.716e-4
7.800e-2	1.705e-4
7.900e-2	1.692e-4
8.000e-2	1.682e-4
8.100e-2	1.672e-4
8.200e-2	1.661e-4
8.300e-2	1.651e-4
8.400e-2	1.640e-4
8.500e-2	1.630e-4
8.600e-2	1.621e-4
8.700e-2	1.613e-4
8.800e-2	1.603e-4
8.900e-2	1.594e-4
9.000e-2	1.584e-4
9.100e-2	1.575e-4
9.200e-2	1.567e-4
9.300e-2	1.560e-4
9.400e-2	1.550e-4
9.500e-2	1.541e-4
9.600e-2	1.533e-4
9.700e-2	1.526e-4
9.800e-2	1.517e-4
9.900e-2	1.511e-4
1.000e-1	1.502e-4
1.010e-1	1.496e-4
1.020e-1	1.487e-4
1.030e-1	1.481e-4
1.040e-1	1.472e-4
1.050e-1	1.466e-4
1.060e-1	1.458e-4
1.070e-1	1.452e-4
1.080e-1	1.446e-4
1.090e-1	1.438e-4
1.100e-1	1.433e-4
1.110e-1	1.426e-4
1.120e-1	1.418e-4
1.130e-1	1.413e-4
1.140e-1	1.408e-4
1.150e-1	1.401e-4
1.160e-1	1.395e-4
1.170e-1	1.389e-4
1.180e-1	1.382e-4
1.190e-1	1.374e-4
1.200e-1	1.369e-4
1.210e-1	1.364e-4
1.220e-1	1.359e-4
1.230e-1	1.353e-4
1.240e-1	1.347e-4
1.250e-1	1.343e-4
1.260e-1	1.337e-4
1.270e-1	1.331e-4
1.280e-1	1.326e-4
1.290e-1	1.321e-4
1.300e-1	1.316e-4
1.310e-1	1.311e-4
1.320e-1	1.306e-4
1.330e-1	1.301e-4
1.340e-1	1.296e-4
1.350e-1	1.292e-4
1.360e-1	1.287e-4
1.370e-1	1.282e-4
1.380e-1	1.278e-4
1.390e-1	1.272e-4
1.400e-1	1.269e-4
1.410e-1	1.265e-4
1.420e-1	1.261e-4
1.430e-1	1.257e-4
1.440e-1	1.252e-4
1.450e-1	1.247e-4
1.460e-1	1.242e-4
1.470e-1	1.238e-4
1.480e-1	1.234e-4
1.490e-1	1.230e-4
1.500e-1	1.227e-4
1.510e-1	1.221e-4
1.520e-1	1.217e-4
1.530e-1	1.213e-4
1.540e-1	1.208e-4
1.550e-1	1.205e-4
1.560e-1	1.202e-4
1.570e-1	1.198e-4
1.580e-1	1.194e-4
1.590e-1	1.190e-4
1.600e-1	1.187e-4
1.610e-1	1.184e-4
1.620e-1	1.179e-4
1.630e-1	1.175e-4
1.640e-1	1.172e-4
1.650e-1	1.169e-4
1.660e-1	1.165e-4
1.670e-1	1.162e-4
1.680e-1	1.159e-4
1.690e-1	1.155e-4
1.700e-1	1.152e-4
1.710e-1	1.149e-4
1.720e-1	1.145e-4
1.730e-1	1.141e-4
1.740e-1	1.139e-4
1.750e-1	1.135e-4
1.760e-1	1.132e-4
1.770e-1	1.129e-4
1.780e-1	1.125e-4
1.790e-1	1.123e-4
1.800e-1	1.120e-4
1.810e-1	1.116e-4
1.820e-1	1.114e-4
1.830e-1	1.111e-4
1.840e-1	1.107e-4
1.850e-1	1.106e-4
1.860e-1	1.101e-4
1.870e-1	1.100e-4
1.880e-1	1.096e-4
1.890e-1	1.094e-4
1.900e-1	1.091e-4
1.910e-1	1.088e-4
1.920e-1	1.085e-4
1.930e-1	1.081e-4
1.940e-1	1.080e-4
1.950e-1	1.076e-4
1.960e-1	1.074e-4
1.970e-1	1.070e-4
1.980e-1	1.067e-4
1.990e-1	1.065e-4
2.000e-1	1.062e-4
2.010e-1	1.058e-4
2.020e-1	1.056e-4
2.030e-1	1.053e-4
2.040e-1	1.051e-4
2.050e-1	1.048e-4
2.060e-1	1.047e-4
2.070e-1	1.044e-4
2.080e-1	1.042e-4
2.090e-1	1.039e-4
2.100e-1	1.037e-4
2.110e-1	1.033e-4
2.120e-1	1.031e-4
2.130e-1	1.030e-4
2.140e-1	1.027e-4
2.150e-1	1.025e-4
2.160e-1	1.022e-4
2.170e-1	1.019e-4
2.180e-1	1.018e-4
2.190e-1	1.014e-4
2.200e-1	1.013e-4
2.210e-1	1.012e-4
2.220e-1	1.008e-4
2.230e-1	1.007e-4
2.240e-1	1.004e-4
2.250e-1	1.003e-4
2.260e-1	9.994e-5
2.270e-1	9.981e-5
2.280e-1	9.942e-5
2.290e-1	9.936e-5
2.300e-1	9.911e-5
2.310e-1	9.890e-5
2.320e-1	9.881e-5
2.330e-1	9.847e-5
2.340e-1	9.832e-5
2.350e-1	9.810e-5
2.360e-1	9.783e-5
2.370e-1	9.786e-5
2.380e-1	9.740e-5
2.390e-1	9.737e-5
2.400e-1	9.707e-5
2.410e-1	9.688e-5
2.420e-1	9.685e-5
2.430e-1	9.645e-5
2.440e-1	9.630e-5
2.450e-1	9.606e-5
2.460e-1	9.590e-5
2.470e-1	9.584e-5
2.480e-1	9.551e-5
2.490e-1	9.542e-5
2.500e-1	9.523e-5
2.510e-1	9.496e-5
2.520e-1	9.490e-5
2.530e-1	9.468e-5
2.540e-1	9.441e-5
2.550e-1	9.438e-5
2.560e-1	9.398e-5
2.570e-1	9.395e-5
2.580e-1	9.386e-5
2.590e-1	9.352e-5
2.600e-1	9.343e-5
2.610e-1	9.337e-5
2.620e-1	9.294e-5
2.630e-1	9.294e-5
2.640e-1	9.270e-5
2.650e-1	9.255e-5
2.660e-1	9.245e-5
2.670e-1	9.206e-5
2.680e-1	9.197e-5
2.690e-1	9.193e-5
2.700e-1	9.172e-5
2.710e-1	9.151e-5
2.720e-1	9.139e-5
2.730e-1	9.108e-5
2.740e-1	9.099e-5
2.750e-1	9.077e-5
2.760e-1	9.056e-5
2.770e-1	9.050e-5
2.780e-1	9.022e-5
2.790e-1	9.004e-5
2.800e-1	9.001e-5
2.810e-1	8.992e-5
2.820e-1	8.958e-5
2.830e-1	8.955e-5
2.840e-1	8.946e-5
2.850e-1	8.909e-5
2.860e-1	8.906e-5
2.870e-1	8.894e-5
2.880e-1	8.867e-5
2.890e-1	8.858e-5
2.900e-1	8.845e-5
2.910e-1	8.824e-5
2.920e-1	8.806e-5
2.930e-1	8.809e-5
2.940e-1	8.793e-5
2.950e-1	8.763e-5
2.960e-1	8.757e-5
2.970e-1	8.754e-5
2.980e-1	8.720e-5
2.990e-1	8.711e-5
3.000e-1	8.705e-5
3.010e-1	8.687e-5
3.020e-1	8.665e-5
3.030e-1	8.662e-5
3.040e-1	8.641e-5
3.050e-1	8.616e-5
3.060e-1	8.613e-5
3.070e-1	8.613e-5
3.080e-1	8.604e-5
3.090e-1	8.570e-5
3.100e-1	8.564e-5
3.110e-1	8.558e-5
3.120e-1	8.534e-5
3.130e-1	8.516e-5
3.140e-1	8.512e-5
3.150e-1	8.497e-5
3.160e-1	8.479e-5
3.170e-1	8.467e-5
3.180e-1	8.464e-5
3.190e-1	8.451e-5
3.200e-1	8.418e-5
3.210e-1	8.418e-5
3.220e-1	8.415e-5
3.230e-1	8.403e-5
3.240e-1	8.369e-5
3.250e-1	8.369e-5
3.260e-1	8.366e-5
3.270e-1	8.354e-5
3.280e-1	8.326e-5
3.290e-1	8.320e-5
3.300e-1	8.317e-5
3.310e-1	8.296e-5
3.320e-1	8.271e-5
3.330e-1	8.271e-5
3.340e-1	8.259e-5
3.350e-1	8.244e-5
3.360e-1	8.225e-5
3.370e-1	8.222e-5
3.380e-1	8.216e-5
3.390e-1	8.198e-5
3.400e-1	8.170e-5
3.410e-1	8.173e-5
3.420e-1	8.170e-5
3.430e-1	8.164e-5
3.440e-1	8.134e-5
3.450e-1	8.125e-5
3.460e-1	8.122e-5
3.470e-1	8.112e-5
3.480e-1	8.079e-5
3.490e-1	8.079e-5
3.500e-1	8.073e-5
3.510e-1	8.070e-5
3.520e-1	8.048e-5
3.530e-1	8.027e-5
3.540e-1	8.027e-5
3.550e-1	8.024e-5
3.560e-1	8.009e-5
3.570e-1	7.984e-5
3.580e-1	7.978e-5
3.590e-1	7.981e-5
3.600e-1	7.978e-5
3.610e-1	7.960e-5
3.620e-1	7.932e-5
3.630e-1	7.929e-5
3.640e-1	7.926e-5
3.650e-1	7.920e-5
3.660e-1	7.896e-5
3.670e-1	7.880e-5
3.680e-1	7.880e-5
3.690e-1	7.874e-5
3.700e-1	7.865e-5
3.710e-1	7.844e-5
3.720e-1	7.828e-5
3.730e-1	7.831e-5
3.740e-1	7.822e-5
3.750e-1	7.810e-5
3.760e-1	7.798e-5
3.770e-1	7.786e-5
3.780e-1	7.783e-5
3.790e-1	7.783e-5
3.800e-1	7.761e-5
3.810e-1	7.740e-5
3.820e-1	7.731e-5
3.830e-1	7.728e-5
3.840e-1	7.721e-5
3.850e-1	7.706e-5
3.860e-1	7.688e-5
3.870e-1	7.688e-5
3.880e-1	7.685e-5
3.890e-1	7.685e-5
3.900e-1	7.660e-5
3.910e-1	7.645e-5
3.920e-1	7.633e-5
3.930e-1	7.633e-5
3.940e-1	7.633e-5
3.950e-1	7.615e-5
3.960e-1	7.602e-5
3.970e-1	7.581e-5
3.980e-1	7.581e-5
3.990e-1	7.554e-5
4.000e-1	7.538e-5
4.010e-1	7.541e-5
4.020e-1	7.538e-5
4.030e-1	7.517e-5
4.040e-1	7.511e-5
4.050e-1	7.489e-5
4.060e-1	7.489e-5
4.070e-1	7.486e-5
4.080e-1	7.477e-5
4.090e-1	7.459e-5
4.100e-1	7.447e-5
4.110e-1	7.441e-5
4.120e-1	7.437e-5
4.130e-1	7.437e-5
4.140e-1	7.416e-5
4.150e-1	7.410e-5
4.160e-1	7.392e-5
4.170e-1	7.392e-5
4.180e-1	7.392e-5
4.190e-1	7.386e-5
4.200e-1	7.373e-5
4.210e-1	7.355e-5
4.220e-1	7.343e-5
4.230e-1	7.343e-5
4.240e-1	7.340e-5
4.250e-1	7.334e-5
4.260e-1	7.318e-5
4.270e-1	7.303e-5
4.280e-1	7.294e-5
4.290e-1	7.294e-5
4.300e-1	7.291e-5
4.310e-1	7.279e-5
4.320e-1	7.270e-5
4.330e-1	7.254e-5
4.340e-1	7.245e-5
4.350e-1	7.245e-5
4.360e-1	7.236e-5
4.370e-1	7.239e-5
4.380e-1	7.218e-5
4.390e-1	7.202e-5
4.400e-1	7.196e-5
4.410e-1	7.196e-5
4.420e-1	7.187e-5
4.430e-1	7.187e-5
4.440e-1	7.178e-5
4.450e-1	7.163e-5
4.460e-1	7.147e-5
4.470e-1	7.147e-5
4.480e-1	7.147e-5
4.490e-1	7.141e-5
4.500e-1	7.138e-5
4.510e-1	7.123e-5
4.520e-1	7.102e-5
4.530e-1	7.102e-5
4.540e-1	7.098e-5
4.550e-1	7.098e-5
4.560e-1	7.092e-5
4.570e-1	7.077e-5
4.580e-1	7.059e-5
4.590e-1	7.050e-5
4.600e-1	7.050e-5
4.610e-1	7.050e-5
4.620e-1	7.034e-5
4.630e-1	7.031e-5
4.640e-1	7.028e-5
4.650e-1	7.022e-5
4.660e-1	7.004e-5
4.670e-1	7.001e-5
4.680e-1	7.001e-5
4.690e-1	6.989e-5
4.700e-1	6.979e-5
4.710e-1	6.958e-5
4.720e-1	6.955e-5
4.730e-1	6.958e-5
4.740e-1	6.952e-5
4.750e-1	6.952e-5
4.760e-1	6.934e-5
4.770e-1	6.937e-5
4.780e-1	6.915e-5
4.790e-1	6.903e-5
4.800e-1	6.903e-5
4.810e-1	6.903e-5
4.820e-1	6.897e-5
4.830e-1	6.894e-5
4.840e-1	6.869e-5
4.850e-1	6.866e-5
4.860e-1	6.860e-5
4.870e-1	6.854e-5
4.880e-1	6.851e-5
4.890e-1	6.851e-5
4.900e-1	6.851e-5
4.910e-1	6.839e-5
4.920e-1	6.821e-5
4.930e-1	6.811e-5
4.940e-1	6.805e-5
4.950e-1	6.805e-5
4.960e-1	6.802e-5
4.970e-1	6.799e-5
4.980e-1	6.784e-5
4.990e-1	6.781e-5
5.000e-1	6.772e-5
5.010e-1	6.759e-5
5.020e-1	6.756e-5
5.030e-1	6.753e-5
5.040e-1	6.750e-5
5.050e-1	6.741e-5
5.060e-1	6.735e-5
5.070e-1	6.720e-5
5.080e-1	6.711e-5
5.090e-1	6.711e-5
5.100e-1	6.708e-5
5.110e-1	6.701e-5
5.120e-1	6.705e-5
5.130e-1	6.695e-5
5.140e-1	6.677e-5
5.150e-1	6.665e-5
5.160e-1	6.659e-5
5.170e-1	6.659e-5
5.180e-1	6.659e-5
5.190e-1	6.659e-5
5.200e-1	6.656e-5
5.210e-1	6.647e-5
5.220e-1	6.634e-5
5.230e-1	6.619e-5
5.240e-1	6.613e-5
5.250e-1	6.613e-5
5.260e-1	6.610e-5
5.270e-1	6.610e-5
5.280e-1	6.607e-5
5.290e-1	6.601e-5
5.300e-1	6.579e-5
5.310e-1	6.564e-5
5.320e-1	6.564e-5
5.330e-1	6.564e-5
5.340e-1	6.561e-5
5.350e-1	6.561e-5
5.360e-1	6.555e-5
5.370e-1	6.546e-5
5.380e-1	6.537e-5
5.390e-1	6.534e-5
5.400e-1	6.518e-5
5.410e-1	6.515e-5
5.420e-1	6.512e-5
5.430e-1	6.512e-5
5.440e-1	6.509e-5
5.450e-1	6.506e-5
5.460e-1	6.500e-5
5.470e-1	6.488e-5
5.480e-1	6.479e-5
5.490e-1	6.463e-5
5.500e-1	6.466e-5
5.510e-1	6.463e-5
5.520e-1	6.460e-5
5.530e-1	6.454e-5
5.540e-1	6.448e-5
5.550e-1	6.445e-5
5.560e-1	6.430e-5
5.570e-1	6.421e-5
5.580e-1	6.417e-5
5.590e-1	6.417e-5
5.600e-1	6.414e-5
5.610e-1	6.414e-5
5.620e-1	6.411e-5
5.630e-1	6.402e-5
5.640e-1	6.390e-5
5.650e-1	6.381e-5
5.660e-1	6.372e-5
5.670e-1	6.369e-5
5.680e-1	6.366e-5
5.690e-1	6.366e-5
5.700e-1	6.362e-5
5.710e-1	6.359e-5
5.720e-1	6.344e-5
5.730e-1	6.341e-5
5.740e-1	6.326e-5
5.750e-1	6.317e-5
5.760e-1	6.320e-5
5.770e-1	6.317e-5
5.780e-1	6.317e-5
5.790e-1	6.311e-5
5.800e-1	6.314e-5
5.810e-1	6.304e-5
5.820e-1	6.292e-5
5.830e-1	6.286e-5
5.840e-1	6.271e-5
5.850e-1	6.271e-5
5.860e-1	6.268e-5
5.870e-1	6.271e-5
5.880e-1	6.268e-5
5.890e-1	6.265e-5
5.900e-1	6.262e-5
5.910e-1	6.253e-5
5.920e-1	6.249e-5
5.930e-1	6.237e-5
5.940e-1	6.228e-5
5.950e-1	6.222e-5
5.960e-1	6.219e-5
5.970e-1	6.219e-5
5.980e-1	6.219e-5
5.990e-1	6.219e-5
6.000e-1	6.216e-5
6.010e-1	6.207e-5
6.020e-1	6.188e-5
6.030e-1	6.182e-5
6.040e-1	6.182e-5
6.050e-1	6.176e-5
6.060e-1	6.170e-5
6.070e-1	6.170e-5
6.080e-1	6.161e-5
6.090e-1	6.152e-5
6.100e-1	6.155e-5
6.110e-1	6.146e-5
6.120e-1	6.130e-5
6.130e-1	6.130e-5
6.140e-1	6.124e-5
6.150e-1	6.124e-5
6.160e-1	6.121e-5
6.170e-1	6.121e-5
6.180e-1	6.121e-5
6.190e-1	6.115e-5
6.200e-1	6.109e-5
6.210e-1	6.082e-5
6.220e-1	6.085e-5
6.230e-1	6.078e-5
6.240e-1	6.072e-5
6.250e-1	6.072e-5
6.260e-1	6.072e-5
6.270e-1	6.072e-5
6.280e-1	6.069e-5
6.290e-1	6.063e-5
6.300e-1	6.060e-5
6.310e-1	6.048e-5
6.320e-1	6.045e-5
6.330e-1	6.033e-5
6.340e-1	6.027e-5
6.350e-1	6.024e-5
6.360e-1	6.027e-5
6.370e-1	6.024e-5
6.380e-1	6.024e-5
6.390e-1	6.020e-5
6.400e-1	6.014e-5
6.410e-1	6.017e-5
6.420e-1	6.002e-5
6.430e-1	5.996e-5
6.440e-1	5.996e-5
6.450e-1	5.978e-5
6.460e-1	5.975e-5
6.470e-1	5.975e-5
6.480e-1	5.972e-5
6.490e-1	5.972e-5
6.500e-1	5.972e-5
6.510e-1	5.962e-5
6.520e-1	5.953e-5
6.530e-1	5.947e-5
6.540e-1	5.938e-5
6.550e-1	5.932e-5
6.560e-1	5.935e-5
6.570e-1	5.926e-5
6.580e-1	5.929e-5
6.590e-1	5.926e-5
6.600e-1	5.926e-5
6.610e-1	5.923e-5
6.620e-1	5.920e-5
6.630e-1	5.907e-5
6.640e-1	5.898e-5
6.650e-1	5.883e-5
6.660e-1	5.877e-5
6.670e-1	5.880e-5
6.680e-1	5.877e-5
6.690e-1	5.877e-5
6.700e-1	5.874e-5
6.710e-1	5.877e-5
6.720e-1	5.871e-5
6.730e-1	5.871e-5
6.740e-1	5.868e-5
6.750e-1	5.862e-5
6.760e-1	5.856e-5
6.770e-1	5.843e-5
6.780e-1	5.834e-5
6.790e-1	5.828e-5
6.800e-1	5.828e-5
6.810e-1	5.828e-5
6.820e-1	5.825e-5
6.830e-1	5.825e-5
6.840e-1	5.822e-5
6.850e-1	5.825e-5
6.860e-1	5.822e-5
6.870e-1	5.810e-5
6.880e-1	5.791e-5
6.890e-1	5.788e-5
6.900e-1	5.785e-5
6.910e-1	5.785e-5
6.920e-1	5.779e-5
6.930e-1	5.779e-5
6.940e-1	5.779e-5
6.950e-1	5.779e-5
6.960e-1	5.773e-5
6.970e-1	5.770e-5
6.980e-1	5.764e-5
6.990e-1	5.764e-5
7.000e-1	5.752e-5
7.010e-1	5.752e-5
7.020e-1	5.736e-5
7.030e-1	5.733e-5
7.040e-1	5.730e-5
7.050e-1	5.733e-5
7.060e-1	5.727e-5
7.070e-1	5.727e-5
7.080e-1	5.727e-5
7.090e-1	5.727e-5
7.100e-1	5.706e-5
7.110e-1	5.709e-5
7.120e-1	5.700e-5
7.130e-1	5.694e-5
7.140e-1	5.697e-5
7.150e-1	5.691e-5
7.160e-1	5.678e-5
7.170e-1	5.681e-5
7.180e-1	5.678e-5
7.190e-1	5.681e-5
7.200e-1	5.681e-5
7.210e-1	5.681e-5
7.220e-1	5.672e-5
7.230e-1	5.669e-5
7.240e-1	5.666e-5
7.250e-1	5.654e-5
7.260e-1	5.654e-5
7.270e-1	5.639e-5
7.280e-1	5.639e-5
7.290e-1	5.633e-5
7.300e-1	5.630e-5
7.310e-1	5.633e-5
7.320e-1	5.626e-5
7.330e-1	5.633e-5
7.340e-1	5.626e-5
7.350e-1	5.623e-5
7.360e-1	5.623e-5
7.370e-1	5.617e-5
7.380e-1	5.611e-5
7.390e-1	5.605e-5
7.400e-1	5.599e-5
7.410e-1	5.593e-5
7.420e-1	5.587e-5
7.430e-1	5.587e-5
7.440e-1	5.581e-5
7.450e-1	5.584e-5
7.460e-1	5.584e-5
7.470e-1	5.581e-5
7.480e-1	5.581e-5
7.490e-1	5.584e-5
7.500e-1	5.572e-5
7.510e-1	5.562e-5
7.520e-1	5.553e-5
7.530e-1	5.559e-5
7.540e-1	5.565e-5
7.550e-1	5.538e-5
7.560e-1	5.532e-5
7.570e-1	5.535e-5
7.580e-1	5.535e-5
7.590e-1	5.532e-5
7.600e-1	5.532e-5
7.610e-1	5.532e-5
7.620e-1	5.526e-5
7.630e-1	5.535e-5
7.640e-1	5.513e-5
7.650e-1	5.507e-5
7.660e-1	5.504e-5
7.670e-1	5.489e-5
7.680e-1	5.495e-5
7.690e-1	5.489e-5
7.700e-1	5.486e-5
7.710e-1	5.489e-5
7.720e-1	5.483e-5
7.730e-1	5.486e-5
7.740e-1	5.483e-5
7.750e-1	5.486e-5
7.760e-1	5.483e-5
7.770e-1	5.480e-5
7.780e-1	5.471e-5
7.790e-1	5.471e-5
7.800e-1	5.471e-5
7.810e-1	5.452e-5
7.820e-1	5.443e-5
7.830e-1	5.440e-5
7.840e-1	5.440e-5
7.850e-1	5.440e-5
7.860e-1	5.437e-5
7.870e-1	5.437e-5
7.880e-1	5.434e-5
7.890e-1	5.437e-5
7.900e-1	5.431e-5
7.910e-1	5.425e-5
7.920e-1	5.434e-5
7.930e-1	5.428e-5
7.940e-1	5.422e-5
7.950e-1	5.400e-5
7.960e-1	5.394e-5
7.970e-1	5.394e-5
7.980e-1	5.388e-5
7.990e-1	5.388e-5
8.000e-1	5.388e-5
8.010e-1	5.391e-5
8.020e-1	5.388e-5
8.030e-1	5.388e-5
8.040e-1	5.385e-5
8.050e-1	5.388e-5
8.060e-1	5.388e-5
8.070e-1	5.376e-5
8.080e-1	5.367e-5
8.090e-1	5.373e-5
8.100e-1	5.352e-5
8.110e-1	5.358e-5
8.120e-1	5.352e-5
8.130e-1	5.339e-5
8.140e-1	5.339e-5
8.150e-1	5.339e-5
8.160e-1	5.342e-5
8.170e-1	5.339e-5
8.180e-1	5.336e-5
8.190e-1	5.339e-5
8.200e-1	5.336e-5
8.210e-1	5.339e-5
8.220e-1	5.336e-5
8.230e-1	5.330e-5
8.240e-1	5.318e-5
8.250e-1	5.315e-5
8.260e-1	5.318e-5
8.270e-1	5.306e-5
8.280e-1	5.288e-5
8.290e-1	5.297e-5
8.300e-1	5.291e-5
8.310e-1	5.291e-5
8.320e-1	5.291e-5
8.330e-1	5.291e-5
8.340e-1	5.288e-5
8.350e-1	5.291e-5
8.360e-1	5.288e-5
8.370e-1	5.288e-5
8.380e-1	5.278e-5
8.390e-1	5.281e-5
8.400e-1	5.272e-5
8.410e-1	5.263e-5
8.420e-1	5.263e-5
8.430e-1	5.257e-5
8.440e-1	5.254e-5
8.450e-1	5.245e-5
8.460e-1	5.239e-5
8.470e-1	5.242e-5
8.480e-1	5.242e-5
8.490e-1	5.242e-5
8.500e-1	5.239e-5
8.510e-1	5.239e-5
8.520e-1	5.239e-5
8.530e-1	5.239e-5
8.540e-1	5.239e-5
8.550e-1	5.229e-5
8.560e-1	5.220e-5
8.570e-1	5.226e-5
8.580e-1	5.214e-5
8.590e-1	5.202e-5
8.600e-1	5.211e-5
8.610e-1	5.199e-5
8.620e-1	5.193e-5
8.630e-1	5.193e-5
8.640e-1	5.196e-5
8.650e-1	5.193e-5
8.660e-1	5.193e-5
8.670e-1	5.193e-5
8.680e-1	5.190e-5
8.690e-1	5.187e-5
8.700e-1	5.190e-5
8.710e-1	5.193e-5
8.720e-1	5.181e-5
8.730e-1	5.178e-5
8.740e-1	5.165e-5
8.750e-1	5.162e-5
8.760e-1	5.156e-5
8.770e-1	5.150e-5
8.780e-1	5.150e-5
8.790e-1	5.150e-5
8.800e-1	5.141e-5
8.810e-1	5.144e-5
8.820e-1	5.144e-5
8.830e-1	5.147e-5
8.840e-1	5.141e-5
8.850e-1	5.144e-5
8.860e-1	5.141e-5
8.870e-1	5.144e-5
8.880e-1	5.135e-5
8.890e-1	5.132e-5
8.900e-1	5.123e-5
8.910e-1	5.123e-5
8.920e-1	5.107e-5
8.930e-1	5.113e-5
8.940e-1	5.101e-5
8.950e-1	5.101e-5
8.960e-1	5.098e-5
8.970e-1	5.101e-5
8.980e-1	5.095e-5
8.990e-1	5.095e-5
9.000e-1	5.092e-5
9.010e-1	5.095e-5
9.020e-1	5.095e-5
9.030e-1	5.095e-5
9.040e-1	5.092e-5
9.050e-1	5.089e-5
9.060e-1	5.080e-5
9.070e-1	5.089e-5
9.080e-1	5.077e-5
9.090e-1	5.062e-5
9.100e-1	5.077e-5
9.110e-1	5.058e-5
9.120e-1	5.055e-5
9.130e-1	5.049e-5
9.140e-1	5.049e-5
9.150e-1	5.049e-5
9.160e-1	5.046e-5
9.170e-1	5.046e-5
9.180e-1	5.049e-5
9.190e-1	5.046e-5
9.200e-1	5.046e-5
9.210e-1	5.046e-5
9.220e-1	5.046e-5
9.230e-1	5.043e-5
9.240e-1	5.043e-5
9.250e-1	5.043e-5
9.260e-1	5.031e-5
9.270e-1	5.028e-5
9.280e-1	5.022e-5
9.290e-1	5.010e-5
9.300e-1	5.003e-5
9.310e-1	5.003e-5
9.320e-1	5.003e-5
9.330e-1	5.010e-5
9.340e-1	5.000e-5
9.350e-1	5.000e-5
9.360e-1	4.997e-5
9.370e-1	4.997e-5
9.380e-1	4.997e-5
9.390e-1	4.994e-5
9.400e-1	4.994e-5
9.410e-1	4.994e-5
9.420e-1	4.991e-5
9.430e-1	4.991e-5
9.440e-1	4.982e-5
9.450e-1	4.979e-5
9.460e-1	4.970e-5
9.470e-1	4.967e-5
9.480e-1	4.958e-5
9.490e-1	4.967e-5
9.500e-1	4.961e-5
9.510e-1	4.949e-5
9.520e-1	4.952e-5
9.530e-1	4.949e-5
9.540e-1	4.949e-5
9.550e-1	4.949e-5
9.560e-1	4.949e-5
9.570e-1	4.949e-5
9.580e-1	4.949e-5
9.590e-1	4.945e-5
9.600e-1	4.945e-5
9.610e-1	4.939e-5
9.620e-1	4.939e-5
9.630e-1	4.939e-5
9.640e-1	4.939e-5
9.650e-1	4.930e-5
9.660e-1	4.924e-5
9.670e-1	4.915e-5
9.680e-1	4.912e-5
9.690e-1	4.909e-5
9.700e-1	4.909e-5
9.710e-1	4.912e-5
9.720e-1	4.903e-5
9.730e-1	4.906e-5
9.740e-1	4.900e-5
9.750e-1	4.900e-5
9.760e-1	4.900e-5
9.770e-1	4.900e-5
9.780e-1	4.900e-5
9.790e-1	4.897e-5
9.800e-1	4.894e-5
9.810e-1	4.897e-5
9.820e-1	4.894e-5
9.830e-1	4.890e-5
9.840e-1	4.875e-5
9.850e-1	4.881e-5
9.860e-1	4.884e-5
9.870e-1	4.863e-5
9.880e-1	4.869e-5
9.890e-1	4.872e-5
9.900e-1	4.857e-5
9.910e-1	4.854e-5
9.920e-1	4.851e-5
9.930e-1	4.854e-5
9.940e-1	4.851e-5
9.950e-1	4.851e-5
9.960e-1	4.851e-5
9.970e-1	4.851e-5
9.980e-1	4.851e-5
9.990e-1	4.851e-5
1.000e+0	4.851e-5
1.001e+0	4.848e-5
1.002e+0	4.842e-5
1.003e+0	4.851e-5
1.004e+0	4.836e-5
1.005e+0	4.839e-5
1.006e+0	4.832e-5
1.007e+0	4.839e-5
1.008e+0	4.829e-5
1.009e+0	4.817e-5
1.010e+0	4.823e-5
1.011e+0	4.805e-5
1.012e+0	4.808e-5
1.013e+0	4.805e-5
1.014e+0	4.808e-5
1.015e+0	4.802e-5
1.016e+0	4.802e-5
1.017e+0	4.802e-5
1.018e+0	4.805e-5
1.019e+0	4.802e-5
1.020e+0	4.802e-5
1.021e+0	4.802e-5
1.022e+0	4.802e-5
1.023e+0	4.799e-5
1.024e+0	4.793e-5
1.025e+0	4.790e-5
1.026e+0	4.787e-5
1.027e+0	4.793e-5
1.028e+0	4.787e-5
1.029e+0	4.765e-5
1.030e+0	4.777e-5
1.031e+0	4.771e-5
1.032e+0	4.762e-5
1.033e+0	4.768e-5
1.034e+0	4.759e-5
1.035e+0	4.759e-5
1.036e+0	4.759e-5
1.037e+0	4.753e-5
1.038e+0	4.756e-5
1.039e+0	4.753e-5
1.040e+0	4.750e-5
1.041e+0	4.753e-5
1.042e+0	4.753e-5
1.043e+0	4.750e-5
1.044e+0	4.753e-5
1.045e+0	4.750e-5
1.046e+0	4.741e-5
1.047e+0	4.753e-5
1.048e+0	4.738e-5
1.049e+0	4.747e-5
1.050e+0	4.741e-5
1.051e+0	4.726e-5
1.052e+0	4.713e-5
1.053e+0	4.723e-5
1.054e+0	4.723e-5
1.055e+0	4.713e-5
1.056e+0	4.710e-5
1.057e+0	4.707e-5
1.058e+0	4.707e-5
1.059e+0	4.704e-5
1.060e+0	4.704e-5
1.061e+0	4.704e-5
1.062e+0	4.701e-5
1.063e+0	4.701e-5
1.064e+0	4.704e-5
1.065e+0	4.704e-5
1.066e+0	4.704e-5
1.067e+0	4.701e-5
1.068e+0	4.701e-5
1.069e+0	4.689e-5
1.070e+0	4.695e-5
1.071e+0	4.689e-5
1.072e+0	4.686e-5
1.073e+0	4.686e-5
1.074e+0	4.683e-5
1.075e+0	4.680e-5
1.076e+0	4.674e-5
1.077e+0	4.680e-5
1.078e+0	4.665e-5
1.079e+0	4.661e-5
1.080e+0	4.658e-5
1.081e+0	4.658e-5
1.082e+0	4.661e-5
1.083e+0	4.658e-5
1.084e+0	4.655e-5
1.085e+0	4.655e-5
1.086e+0	4.655e-5
1.087e+0	4.652e-5
1.088e+0	4.655e-5
1.089e+0	4.655e-5
1.090e+0	4.655e-5
1.091e+0	4.652e-5
1.092e+0	4.652e-5
1.093e+0	4.646e-5
1.094e+0	4.649e-5
1.095e+0	4.646e-5
1.096e+0	4.631e-5
1.097e+0	4.640e-5
1.098e+0	4.628e-5
1.099e+0	4.625e-5
1.100e+0	4.622e-5
1.101e+0	4.616e-5
1.102e+0	4.619e-5
1.103e+0	4.616e-5
1.104e+0	4.610e-5
1.105e+0	4.606e-5
1.106e+0	4.616e-5
1.107e+0	4.610e-5
1.108e+0	4.606e-5
1.109e+0	4.606e-5
1.110e+0	4.606e-5
1.111e+0	4.606e-5
1.112e+0	4.600e-5
1.113e+0	4.606e-5
1.114e+0	4.594e-5
1.115e+0	4.597e-5
1.116e+0	4.600e-5
1.117e+0	4.600e-5
1.118e+0	4.591e-5
1.119e+0	4.594e-5
1.120e+0	4.585e-5
1.121e+0	4.591e-5
1.122e+0	4.570e-5
1.123e+0	4.573e-5
1.124e+0	4.567e-5
1.125e+0	4.576e-5
1.126e+0	4.567e-5
1.127e+0	4.564e-5
1.128e+0	4.561e-5
1.129e+0	4.561e-5
1.130e+0	4.561e-5
1.131e+0	4.558e-5
1.132e+0	4.558e-5
1.133e+0	4.558e-5
1.134e+0	4.558e-5
1.135e+0	4.558e-5
1.136e+0	4.558e-5
1.137e+0	4.558e-5
1.138e+0	4.555e-5
1.139e+0	4.555e-5
1.140e+0	4.545e-5
1.141e+0	4.552e-5
1.142e+0	4.552e-5
1.143e+0	4.548e-5
1.144e+0	4.545e-5
1.145e+0	4.542e-5
1.146e+0	4.539e-5
1.147e+0	4.533e-5
1.148e+0	4.527e-5
1.149e+0	4.530e-5
1.150e+0	4.521e-5
1.151e+0	4.521e-5
1.152e+0	4.512e-5
1.153e+0	4.518e-5
1.154e+0	4.512e-5
1.155e+0	4.509e-5
1.156e+0	4.509e-5
1.157e+0	4.512e-5
1.158e+0	4.509e-5
1.159e+0	4.509e-5
1.160e+0	4.509e-5
1.161e+0	4.509e-5
1.162e+0	4.509e-5
1.163e+0	4.509e-5
1.164e+0	4.506e-5
1.165e+0	4.509e-5
1.166e+0	4.506e-5
1.167e+0	4.506e-5
1.168e+0	4.503e-5
1.169e+0	4.500e-5
1.170e+0	4.500e-5
1.171e+0	4.506e-5
1.172e+0	4.490e-5
1.173e+0	4.490e-5
1.174e+0	4.481e-5
1.175e+0	4.478e-5
1.176e+0	4.484e-5
1.177e+0	4.478e-5
1.178e+0	4.472e-5
1.179e+0	4.463e-5
1.180e+0	4.460e-5
1.181e+0	4.460e-5
1.182e+0	4.463e-5
1.183e+0	4.463e-5
1.184e+0	4.460e-5
1.185e+0	4.454e-5
1.186e+0	4.457e-5
1.187e+0	4.457e-5
1.188e+0	4.451e-5
1.189e+0	4.448e-5
1.190e+0	4.448e-5
1.191e+0	4.445e-5
1.192e+0	4.445e-5
1.193e+0	4.432e-5
1.194e+0	4.432e-5
1.195e+0	4.429e-5
1.196e+0	4.439e-5
1.197e+0	4.414e-5
1.198e+0	4.429e-5
1.199e+0	4.414e-5
1.200e+0	4.423e-5
1.201e+0	4.411e-5
1.202e+0	4.411e-5
1.203e+0	4.414e-5
1.204e+0	4.417e-5
1.205e+0	4.411e-5
1.206e+0	4.408e-5
1.207e+0	4.408e-5
1.208e+0	4.408e-5
1.209e+0	4.408e-5
1.210e+0	4.408e-5
1.211e+0	4.405e-5
1.212e+0	4.396e-5
1.213e+0	4.396e-5
1.214e+0	4.402e-5
1.215e+0	4.393e-5
1.216e+0	4.387e-5
1.217e+0	4.390e-5
1.218e+0	4.387e-5
1.219e+0	4.380e-5
1.220e+0	4.371e-5
1.221e+0	4.371e-5
1.222e+0	4.380e-5
1.223e+0	4.371e-5
1.224e+0	4.365e-5
1.225e+0	4.371e-5
1.226e+0	4.362e-5
1.227e+0	4.365e-5
1.228e+0	4.362e-5
1.229e+0	4.368e-5
1.230e+0	4.359e-5
1.231e+0	4.365e-5
1.232e+0	4.362e-5
1.233e+0	4.362e-5
1.234e+0	4.362e-5
1.235e+0	4.362e-5
1.236e+0	4.362e-5
1.237e+0	4.356e-5
1.238e+0	4.359e-5
1.239e+0	4.350e-5
1.240e+0	4.347e-5
1.241e+0	4.359e-5
1.242e+0	4.344e-5
1.243e+0	4.344e-5
1.244e+0	4.341e-5
1.245e+0	4.341e-5
1.246e+0	4.329e-5
1.247e+0	4.322e-5
1.248e+0	4.319e-5
1.249e+0	4.319e-5
1.250e+0	4.322e-5
1.251e+0	4.319e-5
1.252e+0	4.316e-5
1.253e+0	4.316e-5
1.254e+0	4.310e-5
1.255e+0	4.313e-5
1.256e+0	4.310e-5
1.257e+0	4.313e-5
1.258e+0	4.310e-5
1.259e+0	4.313e-5
1.260e+0	4.310e-5
1.261e+0	4.313e-5
1.262e+0	4.313e-5
1.263e+0	4.313e-5
1.264e+0	4.310e-5
1.265e+0	4.310e-5
1.266e+0	4.310e-5
1.267e+0	4.307e-5
1.268e+0	4.304e-5
1.269e+0	4.310e-5
1.270e+0	4.304e-5
1.271e+0	4.304e-5
1.272e+0	4.292e-5
1.273e+0	4.298e-5
1.274e+0	4.289e-5
1.275e+0	4.286e-5
1.276e+0	4.274e-5
1.277e+0	4.283e-5
1.278e+0	4.274e-5
1.279e+0	4.277e-5
1.280e+0	4.277e-5
1.281e+0	4.283e-5
1.282e+0	4.267e-5
1.283e+0	4.267e-5
1.284e+0	4.261e-5
1.285e+0	4.264e-5
1.286e+0	4.264e-5
1.287e+0	4.267e-5
1.288e+0	4.267e-5
1.289e+0	4.264e-5
1.290e+0	4.264e-5
1.291e+0	4.264e-5
1.292e+0	4.261e-5
1.293e+0	4.264e-5
1.294e+0	4.261e-5
1.295e+0	4.264e-5
1.296e+0	4.261e-5
1.297e+0	4.261e-5
1.298e+0	4.261e-5
1.299e+0	4.261e-5
1.300e+0	4.255e-5
1.301e+0	4.255e-5
1.302e+0	4.252e-5
1.303e+0	4.249e-5
1.304e+0	4.252e-5
1.305e+0	4.246e-5
1.306e+0	4.243e-5
1.307e+0	4.234e-5
1.308e+0	4.228e-5
1.309e+0	4.225e-5
1.310e+0	4.231e-5
1.311e+0	4.225e-5
1.312e+0	4.219e-5
1.313e+0	4.222e-5
1.314e+0	4.219e-5
1.315e+0	4.225e-5
1.316e+0	4.219e-5
1.317e+0	4.216e-5
1.318e+0	4.213e-5
1.319e+0	4.216e-5
1.320e+0	4.216e-5
1.321e+0	4.219e-5
1.322e+0	4.216e-5
1.323e+0	4.216e-5
1.324e+0	4.213e-5
1.325e+0	4.219e-5
1.326e+0	4.209e-5
1.327e+0	4.216e-5
1.328e+0	4.213e-5
1.329e+0	4.216e-5
1.330e+0	4.213e-5
1.331e+0	4.203e-5
1.332e+0	4.213e-5
1.333e+0	4.200e-5
1.334e+0	4.200e-5
1.335e+0	4.197e-5
1.336e+0	4.194e-5
1.337e+0	4.200e-5
1.338e+0	4.191e-5
1.339e+0	4.182e-5
1.340e+0	4.185e-5
1.341e+0	4.185e-5
1.342e+0	4.173e-5
1.343e+0	4.176e-5
1.344e+0	4.173e-5
1.345e+0	4.173e-5
1.346e+0	4.167e-5
1.347e+0	4.167e-5
1.348e+0	4.167e-5
1.349e+0	4.167e-5
1.350e+0	4.173e-5
1.351e+0	4.167e-5
1.352e+0	4.170e-5
1.353e+0	4.167e-5
1.354e+0	4.167e-5
1.355e+0	4.167e-5
1.356e+0	4.164e-5
1.357e+0	4.167e-5
1.358e+0	4.167e-5
1.359e+0	4.167e-5
1.360e+0	4.167e-5
1.361e+0	4.167e-5
1.362e+0	4.164e-5
1.363e+0	4.154e-5
1.364e+0	4.158e-5
1.365e+0	4.154e-5
1.366e+0	4.151e-5
1.367e+0	4.161e-5
1.368e+0	4.151e-5
1.369e+0	4.142e-5
1.370e+0	4.136e-5
1.371e+0	4.148e-5
1.372e+0	4.142e-5
1.373e+0	4.145e-5
1.374e+0	4.136e-5
1.375e+0	4.127e-5
1.376e+0	4.118e-5
1.377e+0	4.124e-5
1.378e+0	4.115e-5
1.379e+0	4.124e-5
1.380e+0	4.115e-5
1.381e+0	4.118e-5
1.382e+0	4.118e-5
1.383e+0	4.118e-5
1.384e+0	4.118e-5
1.385e+0	4.118e-5
1.386e+0	4.115e-5
1.387e+0	4.118e-5
1.388e+0	4.118e-5
1.389e+0	4.118e-5
1.390e+0	4.115e-5
1.391e+0	4.115e-5
1.392e+0	4.112e-5
1.393e+0	4.118e-5
1.394e+0	4.118e-5
1.395e+0	4.115e-5
1.396e+0	4.112e-5
1.397e+0	4.103e-5
1.398e+0	4.115e-5
1.399e+0	4.106e-5
1.400e+0	4.106e-5
1.401e+0	4.100e-5
1.402e+0	4.090e-5
1.403e+0	4.093e-5
1.404e+0	4.096e-5
1.405e+0	4.090e-5
1.406e+0	4.096e-5
1.407e+0	4.084e-5
1.408e+0	4.078e-5
1.409e+0	4.081e-5
1.410e+0	4.081e-5
1.411e+0	4.078e-5
1.412e+0	4.072e-5
1.413e+0	4.072e-5
1.414e+0	4.069e-5
1.415e+0	4.072e-5
1.416e+0	4.069e-5
1.417e+0	4.069e-5
1.418e+0	4.066e-5
1.419e+0	4.066e-5
1.420e+0	4.066e-5
1.421e+0	4.069e-5
1.422e+0	4.069e-5
1.423e+0	4.066e-5
1.424e+0	4.063e-5
1.425e+0	4.054e-5
1.426e+0	4.066e-5
1.427e+0	4.060e-5
1.428e+0	4.063e-5
1.429e+0	4.057e-5
1.430e+0	4.060e-5
1.431e+0	4.063e-5
1.432e+0	4.045e-5
1.433e+0	4.057e-5
1.434e+0	4.051e-5
1.435e+0	4.045e-5
1.436e+0	4.045e-5
1.437e+0	4.051e-5
1.438e+0	4.045e-5
1.439e+0	4.042e-5
1.440e+0	4.042e-5
1.441e+0	4.045e-5
1.442e+0	4.038e-5
1.443e+0	4.042e-5
1.444e+0	4.042e-5
1.445e+0	4.042e-5
1.446e+0	4.042e-5
1.447e+0	4.035e-5
1.448e+0	4.029e-5
1.449e+0	4.042e-5
1.450e+0	4.029e-5
1.451e+0	4.029e-5
1.452e+0	4.020e-5
1.453e+0	4.026e-5
1.454e+0	4.026e-5
1.455e+0	4.023e-5
1.456e+0	4.020e-5
1.457e+0	4.023e-5
1.458e+0	4.020e-5
1.459e+0	4.020e-5
1.460e+0	4.020e-5
1.461e+0	4.017e-5
1.462e+0	4.020e-5
1.463e+0	4.020e-5
1.464e+0	4.017e-5
1.465e+0	4.020e-5
1.466e+0	4.014e-5
1.467e+0	4.017e-5
1.468e+0	4.011e-5
1.469e+0	4.017e-5
1.470e+0	4.011e-5
1.471e+0	4.011e-5
1.472e+0	4.005e-5
1.473e+0	4.002e-5
1.474e+0	3.996e-5
1.475e+0	4.008e-5
1.476e+0	3.987e-5
1.477e+0	3.996e-5
1.478e+0	3.993e-5
1.479e+0	3.999e-5
1.480e+0	3.987e-5
1.481e+0	3.983e-5
1.482e+0	3.980e-5
1.483e+0	3.980e-5
1.484e+0	3.987e-5
1.485e+0	3.977e-5
1.486e+0	3.977e-5
1.487e+0	3.974e-5
1.488e+0	3.974e-5
1.489e+0	3.977e-5
1.490e+0	3.971e-5
1.491e+0	3.971e-5
1.492e+0	3.971e-5
1.493e+0	3.971e-5
1.494e+0	3.971e-5
1.495e+0	3.971e-5
1.496e+0	3.971e-5
1.497e+0	3.971e-5
1.498e+0	3.971e-5
1.499e+0	3.968e-5
1.500e+0	3.968e-5
1.501e+0	3.971e-5
1.502e+0	3.968e-5
1.503e+0	3.968e-5
1.504e+0	3.971e-5
1.505e+0	3.968e-5
1.506e+0	3.968e-5
1.507e+0	3.965e-5
1.508e+0	3.962e-5
1.509e+0	3.962e-5
1.510e+0	3.959e-5
1.511e+0	3.956e-5
1.512e+0	3.956e-5
1.513e+0	3.941e-5
1.514e+0	3.947e-5
1.515e+0	3.941e-5
1.516e+0	3.950e-5
1.517e+0	3.944e-5
1.518e+0	3.935e-5
1.519e+0	3.922e-5
1.520e+0	3.941e-5
1.521e+0	3.935e-5
1.522e+0	3.929e-5
1.523e+0	3.929e-5
1.524e+0	3.929e-5
1.525e+0	3.922e-5
1.526e+0	3.925e-5
1.527e+0	3.929e-5
1.528e+0	3.922e-5
1.529e+0	3.925e-5
1.530e+0	3.922e-5
1.531e+0	3.922e-5
1.532e+0	3.922e-5
1.533e+0	3.922e-5
1.534e+0	3.922e-5
1.535e+0	3.922e-5
1.536e+0	3.922e-5
1.537e+0	3.922e-5
1.538e+0	3.922e-5
1.539e+0	3.922e-5
1.540e+0	3.922e-5
1.541e+0	3.919e-5
1.542e+0	3.919e-5
1.543e+0	3.913e-5
1.544e+0	3.919e-5
1.545e+0	3.916e-5
1.546e+0	3.916e-5
1.547e+0	3.913e-5
1.548e+0	3.907e-5
1.549e+0	3.913e-5
1.550e+0	3.913e-5
1.551e+0	3.910e-5
1.552e+0	3.895e-5
1.553e+0	3.901e-5
1.554e+0	3.901e-5
1.555e+0	3.892e-5
1.556e+0	3.889e-5
1.557e+0	3.889e-5
1.558e+0	3.895e-5
1.559e+0	3.889e-5
1.560e+0	3.892e-5
1.561e+0	3.889e-5
1.562e+0	3.877e-5
1.563e+0	3.877e-5
1.564e+0	3.880e-5
1.565e+0	3.877e-5
1.566e+0	3.883e-5
1.567e+0	3.880e-5
1.568e+0	3.874e-5
1.569e+0	3.874e-5
1.570e+0	3.874e-5
1.571e+0	3.874e-5
1.572e+0	3.874e-5
1.573e+0	3.870e-5
1.574e+0	3.870e-5
1.575e+0	3.870e-5
1.576e+0	3.874e-5
1.577e+0	3.874e-5
1.578e+0	3.874e-5
1.579e+0	3.870e-5
1.580e+0	3.870e-5
1.581e+0	3.874e-5
1.582e+0	3.874e-5
1.583e+0	3.870e-5
1.584e+0	3.867e-5
1.585e+0	3.867e-5
1.586e+0	3.867e-5
1.587e+0	3.870e-5
1.588e+0	3.870e-5
1.589e+0	3.874e-5
1.590e+0	3.867e-5
1.591e+0	3.855e-5
1.592e+0	3.858e-5
1.593e+0	3.852e-5
1.594e+0	3.867e-5
1.595e+0	3.855e-5
1.596e+0	3.852e-5
1.597e+0	3.840e-5
1.598e+0	3.840e-5
1.599e+0	3.846e-5
1.600e+0	3.840e-5
1.601e+0	3.840e-5
1.602e+0	3.843e-5
1.603e+0	3.843e-5
1.604e+0	3.840e-5
1.605e+0	3.834e-5
1.606e+0	3.834e-5
1.607e+0	3.834e-5
1.608e+0	3.828e-5
1.609e+0	3.825e-5
1.610e+0	3.825e-5
1.611e+0	3.825e-5
1.612e+0	3.831e-5
1.613e+0	3.834e-5
1.614e+0	3.825e-5
1.615e+0	3.825e-5
1.616e+0	3.825e-5
1.617e+0	3.825e-5
1.618e+0	3.828e-5
1.619e+0	3.825e-5
1.620e+0	3.825e-5
1.621e+0	3.822e-5
1.622e+0	3.822e-5
1.623e+0	3.825e-5
1.624e+0	3.822e-5
1.625e+0	3.819e-5
1.626e+0	3.819e-5
1.627e+0	3.822e-5
1.628e+0	3.819e-5
1.629e+0	3.822e-5
1.630e+0	3.822e-5
1.631e+0	3.822e-5
1.632e+0	3.816e-5
1.633e+0	3.809e-5
1.634e+0	3.812e-5
1.635e+0	3.816e-5
1.636e+0	3.816e-5
1.637e+0	3.809e-5
1.638e+0	3.809e-5
1.639e+0	3.797e-5
1.640e+0	3.800e-5
1.641e+0	3.800e-5
1.642e+0	3.791e-5
1.643e+0	3.794e-5
1.644e+0	3.800e-5
1.645e+0	3.788e-5
1.646e+0	3.782e-5
1.647e+0	3.782e-5
1.648e+0	3.785e-5
1.649e+0	3.791e-5
1.650e+0	3.779e-5
1.651e+0	3.779e-5
1.652e+0	3.776e-5
1.653e+0	3.779e-5
1.654e+0	3.776e-5
1.655e+0	3.776e-5
1.656e+0	3.776e-5
1.657e+0	3.779e-5
1.658e+0	3.776e-5
1.659e+0	3.779e-5
1.660e+0	3.776e-5
1.661e+0	3.782e-5
1.662e+0	3.779e-5
1.663e+0	3.776e-5
1.664e+0	3.776e-5
1.665e+0	3.776e-5
1.666e+0	3.773e-5
1.667e+0	3.776e-5
1.668e+0	3.776e-5
1.669e+0	3.776e-5
1.670e+0	3.770e-5
1.671e+0	3.773e-5
1.672e+0	3.776e-5
1.673e+0	3.776e-5
1.674e+0	3.776e-5
1.675e+0	3.773e-5
1.676e+0	3.770e-5
1.677e+0	3.770e-5
1.678e+0	3.770e-5
1.679e+0	3.767e-5
1.680e+0	3.764e-5
1.681e+0	3.764e-5
1.682e+0	3.764e-5
1.683e+0	3.764e-5
1.684e+0	3.761e-5
1.685e+0	3.751e-5
1.686e+0	3.751e-5
1.687e+0	3.751e-5
1.688e+0	3.754e-5
1.689e+0	3.757e-5
1.690e+0	3.733e-5
1.691e+0	3.745e-5
1.692e+0	3.736e-5
1.693e+0	3.745e-5
1.694e+0	3.730e-5
1.695e+0	3.727e-5
1.696e+0	3.733e-5
1.697e+0	3.730e-5
1.698e+0	3.730e-5
1.699e+0	3.727e-5
1.700e+0	3.730e-5
1.701e+0	3.727e-5
1.702e+0	3.727e-5
1.703e+0	3.727e-5
1.704e+0	3.730e-5
1.705e+0	3.727e-5
1.706e+0	3.727e-5
1.707e+0	3.727e-5
1.708e+0	3.724e-5
1.709e+0	3.727e-5
1.710e+0	3.724e-5
1.711e+0	3.727e-5
1.712e+0	3.724e-5
1.713e+0	3.727e-5
1.714e+0	3.727e-5
1.715e+0	3.724e-5
1.716e+0	3.727e-5
1.717e+0	3.727e-5
1.718e+0	3.724e-5
1.719e+0	3.718e-5
1.720e+0	3.718e-5
1.721e+0	3.727e-5
1.722e+0	3.715e-5
1.723e+0	3.721e-5
1.724e+0	3.721e-5
1.725e+0	3.721e-5
1.726e+0	3.715e-5
1.727e+0	3.721e-5
1.728e+0	3.699e-5
1.729e+0	3.709e-5
1.730e+0	3.706e-5
1.731e+0	3.699e-5
1.732e+0	3.696e-5
1.733e+0	3.706e-5
1.734e+0	3.706e-5
1.735e+0	3.699e-5
1.736e+0	3.696e-5
1.737e+0	3.696e-5
1.738e+0	3.690e-5
1.739e+0	3.693e-5
1.740e+0	3.687e-5
1.741e+0	3.687e-5
1.742e+0	3.684e-5
1.743e+0	3.687e-5
1.744e+0	3.684e-5
1.745e+0	3.684e-5
1.746e+0	3.681e-5
1.747e+0	3.678e-5
1.748e+0	3.678e-5
1.749e+0	3.681e-5
1.750e+0	3.678e-5
1.751e+0	3.678e-5
1.752e+0	3.675e-5
1.753e+0	3.678e-5
1.754e+0	3.678e-5
1.755e+0	3.678e-5
1.756e+0	3.669e-5
1.757e+0	3.678e-5
1.758e+0	3.675e-5
1.759e+0	3.678e-5
1.760e+0	3.672e-5
1.761e+0	3.675e-5
1.762e+0	3.672e-5
1.763e+0	3.666e-5
1.764e+0	3.669e-5
1.765e+0	3.678e-5
1.766e+0	3.669e-5
1.767e+0	3.675e-5
1.768e+0	3.669e-5
1.769e+0	3.663e-5
1.770e+0	3.672e-5
1.771e+0	3.669e-5
1.772e+0	3.669e-5
1.773e+0	3.669e-5
1.774e+0	3.663e-5
1.775e+0	3.657e-5
1.776e+0	3.663e-5
1.777e+0	3.657e-5
1.778e+0	3.663e-5
1.779e+0	3.660e-5
1.780e+0	3.657e-5
1.781e+0	3.657e-5
1.782e+0	3.651e-5
1.783e+0	3.657e-5
1.784e+0	3.657e-5
1.785e+0	3.654e-5
1.786e+0	3.648e-5
1.787e+0	3.641e-5
1.788e+0	3.654e-5
1.789e+0	3.638e-5
1.790e+0	3.638e-5
1.791e+0	3.644e-5
1.792e+0	3.648e-5
1.793e+0	3.638e-5
1.794e+0	3.635e-5
1.795e+0	3.629e-5
1.796e+0	3.632e-5
1.797e+0	3.638e-5
1.798e+0	3.632e-5
1.799e+0	3.635e-5
1.800e+0	3.629e-5
1.801e+0	3.632e-5
1.802e+0	3.629e-5
1.803e+0	3.629e-5
1.804e+0	3.629e-5
1.805e+0	3.629e-5
1.806e+0	3.629e-5
1.807e+0	3.629e-5
1.808e+0	3.626e-5
1.809e+0	3.629e-5
1.810e+0	3.626e-5
1.811e+0	3.629e-5
1.812e+0	3.629e-5
1.813e+0	3.629e-5
1.814e+0	3.626e-5
1.815e+0	3.626e-5
1.816e+0	3.623e-5
1.817e+0	3.626e-5
1.818e+0	3.626e-5
1.819e+0	3.623e-5
1.820e+0	3.623e-5
1.821e+0	3.623e-5
1.822e+0	3.626e-5
1.823e+0	3.626e-5
1.824e+0	3.614e-5
1.825e+0	3.626e-5
1.826e+0	3.614e-5
1.827e+0	3.614e-5
1.828e+0	3.611e-5
1.829e+0	3.614e-5
1.830e+0	3.602e-5
1.831e+0	3.611e-5
1.832e+0	3.608e-5
1.833e+0	3.608e-5
1.834e+0	3.602e-5
1.835e+0	3.602e-5
1.836e+0	3.599e-5
1.837e+0	3.596e-5
1.838e+0	3.602e-5
1.839e+0	3.586e-5
1.840e+0	3.590e-5
1.841e+0	3.599e-5
1.842e+0	3.583e-5
1.843e+0	3.593e-5
1.844e+0	3.583e-5
1.845e+0	3.586e-5
1.846e+0	3.577e-5
1.847e+0	3.580e-5
1.848e+0	3.580e-5
1.849e+0	3.583e-5
1.850e+0	3.580e-5
1.851e+0	3.580e-5
1.852e+0	3.577e-5
1.853e+0	3.580e-5
1.854e+0	3.577e-5
1.855e+0	3.580e-5
1.856e+0	3.577e-5
1.857e+0	3.580e-5
1.858e+0	3.580e-5
1.859e+0	3.580e-5
1.860e+0	3.577e-5
1.861e+0	3.580e-5
1.862e+0	3.580e-5
1.863e+0	3.580e-5
1.864e+0	3.577e-5
1.865e+0	3.580e-5
1.866e+0	3.580e-5
1.867e+0	3.580e-5
1.868e+0	3.577e-5
1.869e+0	3.577e-5
1.870e+0	3.577e-5
1.871e+0	3.580e-5
1.872e+0	3.577e-5
1.873e+0	3.580e-5
1.874e+0	3.577e-5
1.875e+0	3.568e-5
1.876e+0	3.580e-5
1.877e+0	3.565e-5
1.878e+0	3.574e-5
1.879e+0	3.571e-5
1.880e+0	3.568e-5
1.881e+0	3.556e-5
1.882e+0	3.562e-5
1.883e+0	3.565e-5
1.884e+0	3.556e-5
1.885e+0	3.559e-5
1.886e+0	3.550e-5
1.887e+0	3.556e-5
1.888e+0	3.547e-5
1.889e+0	3.544e-5
1.890e+0	3.544e-5
1.891e+0	3.535e-5
1.892e+0	3.535e-5
1.893e+0	3.538e-5
1.894e+0	3.538e-5
1.895e+0	3.538e-5
1.896e+0	3.544e-5
1.897e+0	3.531e-5
1.898e+0	3.541e-5
1.899e+0	3.535e-5
1.900e+0	3.531e-5
1.901e+0	3.538e-5
1.902e+0	3.531e-5
1.903e+0	3.531e-5
1.904e+0	3.531e-5
1.905e+0	3.531e-5
1.906e+0	3.531e-5
1.907e+0	3.531e-5
1.908e+0	3.531e-5
1.909e+0	3.531e-5
1.910e+0	3.531e-5
1.911e+0	3.531e-5
1.912e+0	3.528e-5
1.913e+0	3.531e-5
1.914e+0	3.528e-5
1.915e+0	3.531e-5
1.916e+0	3.528e-5
1.917e+0	3.531e-5
1.918e+0	3.531e-5
1.919e+0	3.531e-5
1.920e+0	3.528e-5
1.921e+0	3.531e-5
1.922e+0	3.525e-5
1.923e+0	3.531e-5
1.924e+0	3.528e-5
1.925e+0	3.528e-5
1.926e+0	3.528e-5
1.927e+0	3.525e-5
1.928e+0	3.531e-5
1.929e+0	3.519e-5
1.930e+0	3.519e-5
1.931e+0	3.522e-5
1.932e+0	3.525e-5
1.933e+0	3.525e-5
1.934e+0	3.513e-5
1.935e+0	3.507e-5
1.936e+0	3.510e-5
1.937e+0	3.513e-5
1.938e+0	3.516e-5
1.939e+0	3.507e-5
1.940e+0	3.498e-5
1.941e+0	3.504e-5
1.942e+0	3.498e-5
1.943e+0	3.501e-5
1.944e+0	3.507e-5
1.945e+0	3.513e-5
1.946e+0	3.495e-5
1.947e+0	3.492e-5
1.948e+0	3.486e-5
1.949e+0	3.498e-5
1.950e+0	3.498e-5
1.951e+0	3.489e-5
1.952e+0	3.486e-5
1.953e+0	3.486e-5
1.954e+0	3.489e-5
1.955e+0	3.486e-5
1.956e+0	3.486e-5
1.957e+0	3.486e-5
1.958e+0	3.483e-5
1.959e+0	3.486e-5
1.960e+0	3.483e-5
1.961e+0	3.483e-5
1.962e+0	3.483e-5
1.963e+0	3.483e-5
1.964e+0	3.483e-5
1.965e+0	3.486e-5
1.966e+0	3.480e-5
1.967e+0	3.483e-5
1.968e+0	3.483e-5
1.969e+0	3.480e-5
1.970e+0	3.480e-5
1.971e+0	3.483e-5
1.972e+0	3.483e-5
1.973e+0	3.483e-5
1.974e+0	3.483e-5
1.975e+0	3.483e-5
1.976e+0	3.480e-5
1.977e+0	3.480e-5
1.978e+0	3.483e-5
1.979e+0	3.483e-5
1.980e+0	3.477e-5
1.981e+0	3.480e-5
1.982e+0	3.483e-5
1.983e+0	3.483e-5
1.984e+0	3.483e-5
1.985e+0	3.470e-5
1.986e+0	3.470e-5
1.987e+0	3.464e-5
1.988e+0	3.480e-5
1.989e+0	3.473e-5
1.990e+0	3.470e-5
1.991e+0	3.461e-5
1.992e+0	3.461e-5
1.993e+0	3.470e-5
1.994e+0	3.458e-5
1.995e+0	3.458e-5
1.996e+0	3.473e-5
1.997e+0	3.455e-5
1.998e+0	3.455e-5
1.999e+0	3.452e-5
2.000e+0	3.458e-5
2.001e+0	3.458e-5
2.002e+0	3.446e-5
2.003e+0	3.440e-5
2.004e+0	3.446e-5
2.005e+0	3.446e-5
2.006e+0	3.446e-5
2.007e+0	3.449e-5
2.008e+0	3.440e-5
2.009e+0	3.443e-5
2.010e+0	3.437e-5
2.011e+0	3.440e-5
2.012e+0	3.440e-5
2.013e+0	3.437e-5
2.014e+0	3.434e-5
2.015e+0	3.440e-5
2.016e+0	3.437e-5
2.017e+0	3.440e-5
2.018e+0	3.434e-5
2.019e+0	3.434e-5
2.020e+0	3.434e-5
2.021e+0	3.434e-5
2.022e+0	3.434e-5
2.023e+0	3.437e-5
2.024e+0	3.431e-5
2.025e+0	3.434e-5
2.026e+0	3.434e-5
2.027e+0	3.434e-5
2.028e+0	3.431e-5
2.029e+0	3.437e-5
2.030e+0	3.434e-5
2.031e+0	3.434e-5
2.032e+0	3.434e-5
2.033e+0	3.434e-5
2.034e+0	3.434e-5
2.035e+0	3.434e-5
2.036e+0	3.434e-5
2.037e+0	3.431e-5
2.038e+0	3.431e-5
2.039e+0	3.431e-5
2.040e+0	3.431e-5
2.041e+0	3.434e-5
2.042e+0	3.431e-5
2.043e+0	3.425e-5
2.044e+0	3.428e-5
2.045e+0	3.431e-5
2.046e+0	3.425e-5
2.047e+0	3.422e-5
2.048e+0	3.428e-5
2.049e+0	3.422e-5
2.050e+0	3.422e-5
2.051e+0	3.425e-5
2.052e+0	3.422e-5
2.053e+0	3.418e-5
2.054e+0	3.406e-5
2.055e+0	3.425e-5
2.056e+0	3.412e-5
2.057e+0	3.415e-5
2.058e+0	3.406e-5
2.059e+0	3.403e-5
2.060e+0	3.409e-5
2.061e+0	3.400e-5
2.062e+0	3.409e-5
2.063e+0	3.394e-5
2.064e+0	3.394e-5
2.065e+0	3.400e-5
2.066e+0	3.403e-5
2.067e+0	3.391e-5
2.068e+0	3.403e-5
2.069e+0	3.400e-5
2.070e+0	3.388e-5
2.071e+0	3.388e-5
2.072e+0	3.388e-5
2.073e+0	3.385e-5
2.074e+0	3.391e-5
2.075e+0	3.388e-5
2.076e+0	3.388e-5
2.077e+0	3.391e-5
2.078e+0	3.388e-5
2.079e+0	3.385e-5
2.080e+0	3.388e-5
2.081e+0	3.385e-5
2.082e+0	3.385e-5
2.083e+0	3.385e-5
2.084e+0	3.385e-5
2.085e+0	3.385e-5
2.086e+0	3.385e-5
2.087e+0	3.385e-5
2.088e+0	3.385e-5
2.089e+0	3.385e-5
2.090e+0	3.385e-5
2.091e+0	3.385e-5
2.092e+0	3.385e-5
2.093e+0	3.385e-5
2.094e+0	3.385e-5
2.095e+0	3.385e-5
2.096e+0	3.385e-5
2.097e+0	3.382e-5
2.098e+0	3.382e-5
2.099e+0	3.385e-5
2.100e+0	3.385e-5
2.101e+0	3.382e-5
2.102e+0	3.385e-5
2.103e+0	3.379e-5
2.104e+0	3.382e-5
2.105e+0	3.385e-5
2.106e+0	3.382e-5
2.107e+0	3.382e-5
2.108e+0	3.385e-5
2.109e+0	3.382e-5
2.110e+0	3.385e-5
2.111e+0	3.382e-5
2.112e+0	3.376e-5
2.113e+0	3.367e-5
2.114e+0	3.370e-5
2.115e+0	3.373e-5
2.116e+0	3.360e-5
2.117e+0	3.373e-5
2.118e+0	3.373e-5
2.119e+0	3.364e-5
2.120e+0	3.367e-5
2.121e+0	3.364e-5
2.122e+0	3.370e-5
2.123e+0	3.348e-5
2.124e+0	3.357e-5
2.125e+0	3.354e-5
2.126e+0	3.351e-5
2.127e+0	3.360e-5
2.128e+0	3.345e-5
2.129e+0	3.345e-5
2.130e+0	3.354e-5
2.131e+0	3.345e-5
2.132e+0	3.348e-5
2.133e+0	3.345e-5
2.134e+0	3.339e-5
2.135e+0	3.342e-5
2.136e+0	3.339e-5
2.137e+0	3.345e-5
2.138e+0	3.345e-5
2.139e+0	3.336e-5
2.140e+0	3.336e-5
2.141e+0	3.339e-5
2.142e+0	3.345e-5
2.143e+0	3.342e-5
2.144e+0	3.339e-5
2.145e+0	3.342e-5
2.146e+0	3.336e-5
2.147e+0	3.336e-5
2.148e+0	3.336e-5
2.149e+0	3.339e-5
2.150e+0	3.336e-5
2.151e+0	3.336e-5
2.152e+0	3.333e-5
2.153e+0	3.336e-5
2.154e+0	3.336e-5
2.155e+0	3.336e-5
2.156e+0	3.333e-5
2.157e+0	3.336e-5
2.158e+0	3.336e-5
2.159e+0	3.336e-5
2.160e+0	3.336e-5
2.161e+0	3.336e-5
2.162e+0	3.336e-5
2.163e+0	3.333e-5
2.164e+0	3.330e-5
2.165e+0	3.336e-5
2.166e+0	3.336e-5
2.167e+0	3.333e-5
2.168e+0	3.336e-5
2.169e+0	3.330e-5
2.170e+0	3.327e-5
2.171e+0	3.333e-5
2.172e+0	3.327e-5
2.173e+0	3.333e-5
2.174e+0	3.330e-5
2.175e+0	3.327e-5
2.176e+0	3.327e-5
2.177e+0	3.333e-5
2.178e+0	3.330e-5
2.179e+0	3.324e-5
2.180e+0	3.321e-5
2.181e+0	3.327e-5
2.182e+0	3.321e-5
2.183e+0	3.321e-5
2.184e+0	3.318e-5
2.185e+0	3.324e-5
2.186e+0	3.315e-5
2.187e+0	3.318e-5
2.188e+0	3.312e-5
2.189e+0	3.321e-5
2.190e+0	3.309e-5
2.191e+0	3.312e-5
2.192e+0	3.306e-5
2.193e+0	3.312e-5
2.194e+0	3.309e-5
2.195e+0	3.312e-5
2.196e+0	3.315e-5
2.197e+0	3.302e-5
2.198e+0	3.296e-5
2.199e+0	3.299e-5
2.200e+0	3.296e-5
2.201e+0	3.296e-5
2.202e+0	3.290e-5
2.203e+0	3.309e-5
2.204e+0	3.293e-5
2.205e+0	3.290e-5
2.206e+0	3.287e-5
2.207e+0	3.287e-5
2.208e+0	3.287e-5
2.209e+0	3.293e-5
2.210e+0	3.284e-5
2.211e+0	3.290e-5
2.212e+0	3.287e-5
2.213e+0	3.287e-5
2.214e+0	3.287e-5
2.215e+0	3.287e-5
2.216e+0	3.287e-5
2.217e+0	3.287e-5
2.218e+0	3.290e-5
2.219e+0	3.287e-5
2.220e+0	3.284e-5
2.221e+0	3.290e-5
2.222e+0	3.287e-5
2.223e+0	3.284e-5
2.224e+0	3.284e-5
2.225e+0	3.287e-5
2.226e+0	3.287e-5
2.227e+0	3.287e-5
2.228e+0	3.284e-5
2.229e+0	3.284e-5
2.230e+0	3.281e-5
2.231e+0	3.287e-5
2.232e+0	3.284e-5
2.233e+0	3.287e-5
2.234e+0	3.287e-5
2.235e+0	3.284e-5
2.236e+0	3.281e-5
2.237e+0	3.284e-5
2.238e+0	3.287e-5
2.239e+0	3.287e-5
2.240e+0	3.284e-5
2.241e+0	3.281e-5
2.242e+0	3.281e-5
2.243e+0	3.278e-5
2.244e+0	3.278e-5
2.245e+0	3.278e-5
2.246e+0	3.275e-5
2.247e+0	3.278e-5
2.248e+0	3.272e-5
2.249e+0	3.278e-5
2.250e+0	3.278e-5
2.251e+0	3.269e-5
2.252e+0	3.278e-5
2.253e+0	3.278e-5
2.254e+0	3.266e-5
2.255e+0	3.269e-5
2.256e+0	3.269e-5
2.257e+0	3.266e-5
2.258e+0	3.269e-5
2.259e+0	3.275e-5
2.260e+0	3.266e-5
2.261e+0	3.269e-5
2.262e+0	3.266e-5
2.263e+0	3.260e-5
2.264e+0	3.266e-5
2.265e+0	3.254e-5
2.266e+0	3.257e-5
2.267e+0	3.266e-5
2.268e+0	3.263e-5
2.269e+0	3.251e-5
2.270e+0	3.251e-5
2.271e+0	3.260e-5
2.272e+0	3.257e-5
2.273e+0	3.257e-5
2.274e+0	3.241e-5
2.275e+0	3.260e-5
2.276e+0	3.244e-5
2.277e+0	3.247e-5
2.278e+0	3.244e-5
2.279e+0	3.241e-5
2.280e+0	3.247e-5
2.281e+0	3.238e-5
2.282e+0	3.244e-5
2.283e+0	3.244e-5
2.284e+0	3.241e-5
2.285e+0	3.247e-5
2.286e+0	3.241e-5
2.287e+0	3.241e-5
2.288e+0	3.241e-5
2.289e+0	3.241e-5
2.290e+0	3.238e-5
2.291e+0	3.244e-5
2.292e+0	3.235e-5
2.293e+0	3.238e-5
2.294e+0	3.235e-5
2.295e+0	3.238e-5
2.296e+0	3.241e-5
2.297e+0	3.235e-5
2.298e+0	3.235e-5
2.299e+0	3.241e-5
2.300e+0	3.238e-5
2.301e+0	3.238e-5
2.302e+0	3.241e-5
2.303e+0	3.238e-5
2.304e+0	3.238e-5
2.305e+0	3.238e-5
2.306e+0	3.235e-5
2.307e+0	3.235e-5
2.308e+0	3.235e-5
2.309e+0	3.238e-5
2.310e+0	3.235e-5
2.311e+0	3.235e-5
2.312e+0	3.235e-5
2.313e+0	3.235e-5
2.314e+0	3.235e-5
2.315e+0	3.235e-5
2.316e+0	3.232e-5
2.317e+0	3.229e-5
2.318e+0	3.226e-5
2.319e+0	3.235e-5
2.320e+0	3.226e-5
2.321e+0	3.220e-5
2.322e+0	3.235e-5
2.323e+0	3.232e-5
2.324e+0	3.229e-5
2.325e+0	3.226e-5
2.326e+0	3.229e-5
2.327e+0	3.232e-5
2.328e+0	3.205e-5
2.329e+0	3.226e-5
2.330e+0	3.220e-5
2.331e+0	3.214e-5
2.332e+0	3.220e-5
2.333e+0	3.220e-5
2.334e+0	3.214e-5
2.335e+0	3.217e-5
2.336e+0	3.211e-5
2.337e+0	3.211e-5
2.338e+0	3.199e-5
2.339e+0	3.214e-5
2.340e+0	3.202e-5
2.341e+0	3.202e-5
2.342e+0	3.199e-5
2.343e+0	3.208e-5
2.344e+0	3.196e-5
2.345e+0	3.205e-5
2.346e+0	3.196e-5
2.347e+0	3.193e-5
2.348e+0	3.196e-5
2.349e+0	3.189e-5
2.350e+0	3.199e-5
2.351e+0	3.196e-5
2.352e+0	3.186e-5
2.353e+0	3.193e-5
2.354e+0	3.189e-5
2.355e+0	3.189e-5
2.356e+0	3.186e-5
2.357e+0	3.189e-5
2.358e+0	3.189e-5
2.359e+0	3.193e-5
2.360e+0	3.186e-5
2.361e+0	3.193e-5
2.362e+0	3.186e-5
2.363e+0	3.193e-5
2.364e+0	3.186e-5
2.365e+0	3.189e-5
2.366e+0	3.189e-5
2.367e+0	3.189e-5
2.368e+0	3.186e-5
2.369e+0	3.189e-5
2.370e+0	3.189e-5
2.371e+0	3.193e-5
2.372e+0	3.189e-5
2.373e+0	3.189e-5
2.374e+0	3.189e-5
2.375e+0	3.189e-5
2.376e+0	3.189e-5
2.377e+0	3.189e-5
2.378e+0	3.186e-5
2.379e+0	3.189e-5
2.380e+0	3.189e-5
2.381e+0	3.183e-5
2.382e+0	3.186e-5
2.383e+0	3.189e-5
2.384e+0	3.189e-5
2.385e+0	3.189e-5
2.386e+0	3.177e-5
2.387e+0	3.189e-5
2.388e+0	3.183e-5
2.389e+0	3.189e-5
2.390e+0	3.183e-5
2.391e+0	3.189e-5
2.392e+0	3.183e-5
2.393e+0	3.186e-5
2.394e+0	3.180e-5
2.395e+0	3.180e-5
2.396e+0	3.186e-5
2.397e+0	3.180e-5
2.398e+0	3.180e-5
2.399e+0	3.186e-5
2.400e+0	3.180e-5
2.401e+0	3.174e-5
2.402e+0	3.177e-5
2.403e+0	3.183e-5
2.404e+0	3.177e-5
2.405e+0	3.168e-5
2.406e+0	3.183e-5
2.407e+0	3.171e-5
2.408e+0	3.177e-5
2.409e+0	3.171e-5
2.410e+0	3.174e-5
2.411e+0	3.162e-5
2.412e+0	3.171e-5
2.413e+0	3.150e-5
2.414e+0	3.159e-5
2.415e+0	3.162e-5
2.416e+0	3.150e-5
2.417e+0	3.159e-5
2.418e+0	3.159e-5
2.419e+0	3.153e-5
2.420e+0	3.150e-5
2.421e+0	3.153e-5
2.422e+0	3.153e-5
2.423e+0	3.144e-5
2.424e+0	3.141e-5
2.425e+0	3.147e-5
2.426e+0	3.144e-5
2.427e+0	3.141e-5
2.428e+0	3.141e-5
2.429e+0	3.144e-5
2.430e+0	3.141e-5
2.431e+0	3.144e-5
2.432e+0	3.141e-5
2.433e+0	3.144e-5
2.434e+0	3.141e-5
2.435e+0	3.141e-5
2.436e+0	3.138e-5
2.437e+0	3.141e-5
2.438e+0	3.138e-5
2.439e+0	3.147e-5
2.440e+0	3.141e-5
2.441e+0	3.141e-5
2.442e+0	3.141e-5
2.443e+0	3.141e-5
2.444e+0	3.141e-5
2.445e+0	3.141e-5
2.446e+0	3.141e-5
2.447e+0	3.141e-5
2.448e+0	3.141e-5
2.449e+0	3.141e-5
2.450e+0	3.141e-5
2.451e+0	3.141e-5
2.452e+0	3.138e-5
2.453e+0	3.141e-5
2.454e+0	3.141e-5
2.455e+0	3.141e-5
2.456e+0	3.141e-5
2.457e+0	3.141e-5
2.458e+0	3.141e-5
2.459e+0	3.138e-5
2.460e+0	3.141e-5
2.461e+0	3.141e-5
2.462e+0	3.134e-5
2.463e+0	3.141e-5
2.464e+0	3.138e-5
2.465e+0	3.138e-5
2.466e+0	3.138e-5
2.467e+0	3.141e-5
2.468e+0	3.141e-5
2.469e+0	3.128e-5
2.470e+0	3.141e-5
2.471e+0	3.138e-5
2.472e+0	3.134e-5
2.473e+0	3.141e-5
2.474e+0	3.128e-5
2.475e+0	3.119e-5
2.476e+0	3.134e-5
2.477e+0	3.128e-5
2.478e+0	3.131e-5
2.479e+0	3.138e-5
2.480e+0	3.128e-5
2.481e+0	3.113e-5
2.482e+0	3.125e-5
2.483e+0	3.116e-5
2.484e+0	3.128e-5
2.485e+0	3.119e-5
2.486e+0	3.119e-5
2.487e+0	3.119e-5
2.488e+0	3.110e-5
2.489e+0	3.119e-5
2.490e+0	3.122e-5
2.491e+0	3.116e-5
2.492e+0	3.113e-5
2.493e+0	3.116e-5
2.494e+0	3.107e-5
2.495e+0	3.113e-5
2.496e+0	3.104e-5
2.497e+0	3.104e-5
2.498e+0	3.110e-5
2.499e+0	3.113e-5
2.500e+0	3.101e-5
2.501e+0	3.095e-5
2.502e+0	3.110e-5
2.503e+0	3.098e-5
2.504e+0	3.104e-5
2.505e+0	3.110e-5
2.506e+0	3.095e-5
2.507e+0	3.095e-5
2.508e+0	3.095e-5
2.509e+0	3.098e-5
2.510e+0	3.098e-5
2.511e+0	3.095e-5
2.512e+0	3.101e-5
2.513e+0	3.095e-5
2.514e+0	3.098e-5
2.515e+0	3.092e-5
2.516e+0	3.095e-5
2.517e+0	3.092e-5
2.518e+0	3.098e-5
2.519e+0	3.092e-5
2.520e+0	3.092e-5
2.521e+0	3.092e-5
2.522e+0	3.092e-5
2.523e+0	3.092e-5
2.524e+0	3.092e-5
2.525e+0	3.092e-5
2.526e+0	3.092e-5
2.527e+0	3.092e-5
2.528e+0	3.092e-5
2.529e+0	3.092e-5
2.530e+0	3.092e-5
2.531e+0	3.092e-5
2.532e+0	3.092e-5
2.533e+0	3.092e-5
2.534e+0	3.092e-5
2.535e+0	3.092e-5
2.536e+0	3.092e-5
2.537e+0	3.092e-5
2.538e+0	3.092e-5
2.539e+0	3.089e-5
2.540e+0	3.092e-5
2.541e+0	3.092e-5
2.542e+0	3.092e-5
2.543e+0	3.089e-5
2.544e+0	3.092e-5
2.545e+0	3.092e-5
2.546e+0	3.092e-5
2.547e+0	3.092e-5
2.548e+0	3.092e-5
2.549e+0	3.092e-5
2.550e+0	3.086e-5
2.551e+0	3.086e-5
2.552e+0	3.089e-5
2.553e+0	3.089e-5
2.554e+0	3.086e-5
2.555e+0	3.089e-5
2.556e+0	3.092e-5
2.557e+0	3.092e-5
2.558e+0	3.092e-5
2.559e+0	3.086e-5
2.560e+0	3.086e-5
2.561e+0	3.089e-5
2.562e+0	3.089e-5
2.563e+0	3.080e-5
2.564e+0	3.076e-5
2.565e+0	3.080e-5
2.566e+0	3.080e-5
2.567e+0	3.086e-5
2.568e+0	3.080e-5
2.569e+0	3.076e-5
2.570e+0	3.073e-5
2.571e+0	3.073e-5
2.572e+0	3.073e-5
2.573e+0	3.067e-5
2.574e+0	3.064e-5
2.575e+0	3.080e-5
2.576e+0	3.061e-5
2.577e+0	3.067e-5
2.578e+0	3.070e-5
2.579e+0	3.073e-5
2.580e+0	3.055e-5
2.581e+0	3.055e-5
2.582e+0	3.064e-5
2.583e+0	3.067e-5
2.584e+0	3.058e-5
2.585e+0	3.061e-5
2.586e+0	3.058e-5
2.587e+0	3.061e-5
2.588e+0	3.055e-5
2.589e+0	3.055e-5
2.590e+0	3.055e-5
2.591e+0	3.052e-5
2.592e+0	3.049e-5
2.593e+0	3.064e-5
2.594e+0	3.052e-5
2.595e+0	3.052e-5
2.596e+0	3.064e-5
2.597e+0	3.046e-5
2.598e+0	3.046e-5
2.599e+0	3.049e-5
2.600e+0	3.046e-5
2.601e+0	3.049e-5
2.602e+0	3.043e-5
2.603e+0	3.049e-5
2.604e+0	3.043e-5
2.605e+0	3.043e-5
2.606e+0	3.043e-5
2.607e+0	3.043e-5
2.608e+0	3.043e-5
2.609e+0	3.043e-5
2.610e+0	3.043e-5
2.611e+0	3.043e-5
2.612e+0	3.046e-5
2.613e+0	3.043e-5
2.614e+0	3.046e-5
2.615e+0	3.043e-5
2.616e+0	3.040e-5
2.617e+0	3.046e-5
2.618e+0	3.043e-5
2.619e+0	3.043e-5
2.620e+0	3.043e-5
2.621e+0	3.043e-5
2.622e+0	3.043e-5
2.623e+0	3.043e-5
2.624e+0	3.043e-5
2.625e+0	3.040e-5
2.626e+0	3.040e-5
2.627e+0	3.040e-5
2.628e+0	3.040e-5
2.629e+0	3.043e-5
2.630e+0	3.043e-5
2.631e+0	3.037e-5
2.632e+0	3.040e-5
2.633e+0	3.040e-5
2.634e+0	3.037e-5
2.635e+0	3.034e-5
2.636e+0	3.040e-5
2.637e+0	3.034e-5
2.638e+0	3.031e-5
2.639e+0	3.040e-5
2.640e+0	3.037e-5
2.641e+0	3.034e-5
2.642e+0	3.031e-5
2.643e+0	3.040e-5
2.644e+0	3.031e-5
2.645e+0	3.031e-5
2.646e+0	3.031e-5
2.647e+0	3.034e-5
2.648e+0	3.031e-5
2.649e+0	3.031e-5
2.650e+0	3.025e-5
2.651e+0	3.034e-5
2.652e+0	3.031e-5
2.653e+0	3.028e-5
2.654e+0	3.021e-5
2.655e+0	3.012e-5
2.656e+0	3.021e-5
2.657e+0	3.018e-5
2.658e+0	3.025e-5
2.659e+0	3.021e-5
2.660e+0	3.021e-5
2.661e+0	3.012e-5
2.662e+0	3.003e-5
2.663e+0	3.009e-5
2.664e+0	3.009e-5
2.665e+0	3.012e-5
2.666e+0	3.018e-5
2.667e+0	3.009e-5
2.668e+0	3.006e-5
2.669e+0	3.006e-5
2.670e+0	3.003e-5
2.671e+0	3.006e-5
2.672e+0	3.003e-5
2.673e+0	3.009e-5
2.674e+0	2.997e-5
2.675e+0	3.000e-5
2.676e+0	2.994e-5
2.677e+0	3.009e-5
2.678e+0	3.000e-5
2.679e+0	2.997e-5
2.680e+0	3.000e-5
2.681e+0	2.997e-5
2.682e+0	2.994e-5
2.683e+0	2.997e-5
2.684e+0	2.994e-5
2.685e+0	2.994e-5
2.686e+0	2.994e-5
2.687e+0	2.997e-5
2.688e+0	2.994e-5
2.689e+0	3.000e-5
2.690e+0	2.997e-5
2.691e+0	2.997e-5
2.692e+0	2.994e-5
2.693e+0	2.994e-5
2.694e+0	2.994e-5
2.695e+0	2.997e-5
2.696e+0	2.994e-5
2.697e+0	2.994e-5
2.698e+0	2.994e-5
2.699e+0	2.994e-5
2.700e+0	2.994e-5
2.701e+0	2.994e-5
2.702e+0	2.994e-5
2.703e+0	2.994e-5
2.704e+0	2.991e-5
2.705e+0	2.994e-5
2.706e+0	2.994e-5
2.707e+0	2.994e-5
2.708e+0	2.991e-5
2.709e+0	2.994e-5
2.710e+0	2.991e-5
2.711e+0	2.994e-5
2.712e+0	2.994e-5
2.713e+0	2.994e-5
2.714e+0	2.994e-5
2.715e+0	2.994e-5
2.716e+0	2.994e-5
2.717e+0	2.994e-5
2.718e+0	2.991e-5
2.719e+0	2.991e-5
2.720e+0	2.991e-5
2.721e+0	2.994e-5
2.722e+0	2.994e-5
2.723e+0	2.991e-5
2.724e+0	2.991e-5
2.725e+0	2.991e-5
2.726e+0	2.985e-5
2.727e+0	2.988e-5
2.728e+0	2.991e-5
2.729e+0	2.991e-5
2.730e+0	2.991e-5
2.731e+0	2.985e-5
2.732e+0	2.985e-5
2.733e+0	2.994e-5
2.734e+0	2.991e-5
2.735e+0	2.994e-5
2.736e+0	2.982e-5
2.737e+0	2.988e-5
2.738e+0	2.988e-5
2.739e+0	2.991e-5
2.740e+0	2.985e-5
2.741e+0	2.985e-5
2.742e+0	2.985e-5
2.743e+0	2.970e-5
2.744e+0	2.976e-5
2.745e+0	2.982e-5
2.746e+0	2.973e-5
2.747e+0	2.979e-5
2.748e+0	2.979e-5
2.749e+0	2.967e-5
2.750e+0	2.976e-5
2.751e+0	2.973e-5
2.752e+0	2.967e-5
2.753e+0	2.973e-5
2.754e+0	2.973e-5
2.755e+0	2.973e-5
2.756e+0	2.973e-5
2.757e+0	2.970e-5
2.758e+0	2.960e-5
2.759e+0	2.951e-5
2.760e+0	2.963e-5
2.761e+0	2.967e-5
2.762e+0	2.960e-5
2.763e+0	2.960e-5
2.764e+0	2.954e-5
2.765e+0	2.948e-5
2.766e+0	2.957e-5
2.767e+0	2.963e-5
2.768e+0	2.957e-5
2.769e+0	2.963e-5
2.770e+0	2.951e-5
2.771e+0	2.954e-5
2.772e+0	2.954e-5
2.773e+0	2.948e-5
2.774e+0	2.951e-5
2.775e+0	2.954e-5
2.776e+0	2.951e-5
2.777e+0	2.945e-5
2.778e+0	2.945e-5
2.779e+0	2.951e-5
2.780e+0	2.945e-5
2.781e+0	2.951e-5
2.782e+0	2.945e-5
2.783e+0	2.954e-5
2.784e+0	2.945e-5
2.785e+0	2.948e-5
2.786e+0	2.951e-5
2.787e+0	2.945e-5
2.788e+0	2.942e-5
2.789e+0	2.945e-5
2.790e+0	2.948e-5
2.791e+0	2.948e-5
2.792e+0	2.945e-5
2.793e+0	2.945e-5
2.794e+0	2.942e-5
2.795e+0	2.945e-5
2.796e+0	2.945e-5
2.797e+0	2.945e-5
2.798e+0	2.942e-5
2.799e+0	2.945e-5
2.800e+0	2.942e-5
2.801e+0	2.945e-5
2.802e+0	2.942e-5
2.803e+0	2.945e-5
2.804e+0	2.942e-5
2.805e+0	2.945e-5
2.806e+0	2.942e-5
2.807e+0	2.945e-5
2.808e+0	2.945e-5
2.809e+0	2.945e-5
2.810e+0	2.945e-5
2.811e+0	2.945e-5
2.812e+0	2.945e-5
2.813e+0	2.945e-5
2.814e+0	2.945e-5
2.815e+0	2.945e-5
2.816e+0	2.942e-5
2.817e+0	2.945e-5
2.818e+0	2.942e-5
2.819e+0	2.942e-5
2.820e+0	2.939e-5
2.821e+0	2.945e-5
2.822e+0	2.942e-5
2.823e+0	2.945e-5
2.824e+0	2.939e-5
2.825e+0	2.942e-5
2.826e+0	2.942e-5
2.827e+0	2.945e-5
2.828e+0	2.942e-5
2.829e+0	2.939e-5
2.830e+0	2.939e-5
2.831e+0	2.942e-5
2.832e+0	2.942e-5
2.833e+0	2.933e-5
2.834e+0	2.942e-5
2.835e+0	2.930e-5
2.836e+0	2.942e-5
2.837e+0	2.936e-5
2.838e+0	2.930e-5
2.839e+0	2.936e-5
2.840e+0	2.933e-5
2.841e+0	2.936e-5
2.842e+0	2.936e-5
2.843e+0	2.933e-5
2.844e+0	2.927e-5
2.845e+0	2.936e-5
2.846e+0	2.936e-5
2.847e+0	2.933e-5
2.848e+0	2.912e-5
2.849e+0	2.942e-5
2.850e+0	2.930e-5
2.851e+0	2.921e-5
2.852e+0	2.927e-5
2.853e+0	2.927e-5
2.854e+0	2.912e-5
2.855e+0	2.921e-5
2.856e+0	2.924e-5
2.857e+0	2.921e-5
2.858e+0	2.936e-5
2.859e+0	2.921e-5
2.860e+0	2.912e-5
2.861e+0	2.921e-5
2.862e+0	2.902e-5
2.863e+0	2.921e-5
2.864e+0	2.902e-5
2.865e+0	2.912e-5
2.866e+0	2.908e-5
2.867e+0	2.905e-5
2.868e+0	2.905e-5
2.869e+0	2.915e-5
2.870e+0	2.905e-5
2.871e+0	2.905e-5
2.872e+0	2.905e-5
2.873e+0	2.915e-5
2.874e+0	2.902e-5
2.875e+0	2.902e-5
2.876e+0	2.905e-5
2.877e+0	2.908e-5
2.878e+0	2.902e-5
2.879e+0	2.896e-5
2.880e+0	2.899e-5
2.881e+0	2.899e-5
2.882e+0	2.893e-5
2.883e+0	2.902e-5
2.884e+0	2.902e-5
2.885e+0	2.896e-5
2.886e+0	2.896e-5
2.887e+0	2.896e-5
2.888e+0	2.893e-5
2.889e+0	2.896e-5
2.890e+0	2.893e-5
2.891e+0	2.899e-5
2.892e+0	2.893e-5
2.893e+0	2.896e-5
2.894e+0	2.893e-5
2.895e+0	2.896e-5
2.896e+0	2.893e-5
2.897e+0	2.896e-5
2.898e+0	2.893e-5
2.899e+0	2.896e-5
2.900e+0	2.896e-5
2.901e+0	2.896e-5
2.902e+0	2.896e-5
2.903e+0	2.893e-5
2.904e+0	2.896e-5
2.905e+0	2.896e-5
2.906e+0	2.893e-5
2.907e+0	2.896e-5
2.908e+0	2.896e-5
2.909e+0	2.896e-5
2.910e+0	2.893e-5
2.911e+0	2.896e-5
2.912e+0	2.893e-5
2.913e+0	2.896e-5
2.914e+0	2.890e-5
2.915e+0	2.896e-5
2.916e+0	2.893e-5
2.917e+0	2.896e-5
2.918e+0	2.893e-5
2.919e+0	2.896e-5
2.920e+0	2.893e-5
2.921e+0	2.896e-5
2.922e+0	2.890e-5
2.923e+0	2.893e-5
2.924e+0	2.893e-5
2.925e+0	2.896e-5
2.926e+0	2.890e-5
2.927e+0	2.890e-5
2.928e+0	2.890e-5
2.929e+0	2.896e-5
2.930e+0	2.893e-5
2.931e+0	2.896e-5
2.932e+0	2.887e-5
2.933e+0	2.887e-5
2.934e+0	2.893e-5
2.935e+0	2.890e-5
2.936e+0	2.893e-5
2.937e+0	2.890e-5
2.938e+0	2.890e-5
2.939e+0	2.893e-5
2.940e+0	2.881e-5
2.941e+0	2.884e-5
2.942e+0	2.887e-5
2.943e+0	2.890e-5
2.944e+0	2.896e-5
2.945e+0	2.881e-5
2.946e+0	2.884e-5
2.947e+0	2.887e-5
2.948e+0	2.887e-5
2.949e+0	2.881e-5
2.950e+0	2.884e-5
2.951e+0	2.881e-5
2.952e+0	2.875e-5
2.953e+0	2.881e-5
2.954e+0	2.869e-5
2.955e+0	2.878e-5
2.956e+0	2.869e-5
2.957e+0	2.872e-5
2.958e+0	2.872e-5
2.959e+0	2.860e-5
2.960e+0	2.866e-5
2.961e+0	2.869e-5
2.962e+0	2.878e-5
2.963e+0	2.857e-5
2.964e+0	2.857e-5
2.965e+0	2.866e-5
2.966e+0	2.860e-5
2.967e+0	2.863e-5
2.968e+0	2.857e-5
2.969e+0	2.857e-5
2.970e+0	2.854e-5
2.971e+0	2.854e-5
2.972e+0	2.866e-5
2.973e+0	2.866e-5
2.974e+0	2.857e-5
2.975e+0	2.863e-5
2.976e+0	2.854e-5
2.977e+0	2.847e-5
2.978e+0	2.854e-5
2.979e+0	2.854e-5
2.980e+0	2.857e-5
2.981e+0	2.854e-5
2.982e+0	2.850e-5
2.983e+0	2.850e-5
2.984e+0	2.854e-5
2.985e+0	2.847e-5
2.986e+0	2.854e-5
2.987e+0	2.850e-5
2.988e+0	2.847e-5
2.989e+0	2.850e-5
2.990e+0	2.850e-5
2.991e+0	2.850e-5
2.992e+0	2.847e-5
2.993e+0	2.847e-5
2.994e+0	2.844e-5
2.995e+0	2.847e-5
2.996e+0	2.854e-5
2.997e+0	2.850e-5
2.998e+0	2.844e-5
2.999e+0	2.847e-5
3.000e+0	2.844e-5
3.001e+0	2.847e-5
3.002e+0	2.847e-5
3.003e+0	2.844e-5
3.004e+0	2.844e-5
3.005e+0	2.847e-5
3.006e+0	2.847e-5
3.007e+0	2.847e-5
3.008e+0	2.838e-5
3.009e+0	2.847e-5
3.010e+0	2.838e-5
3.011e+0	2.841e-5
3.012e+0	2.847e-5
3.013e+0	2.844e-5
3.014e+0	2.844e-5
3.015e+0	2.844e-5
3.016e+0	2.841e-5
3.017e+0	2.838e-5
3.018e+0	2.838e-5
3.019e+0	2.841e-5
3.020e+0	2.844e-5
3.021e+0	2.841e-5
3.022e+0	2.838e-5
3.023e+0	2.841e-5
3.024e+0	2.835e-5
3.025e+0	2.838e-5
3.026e+0	2.838e-5
3.027e+0	2.832e-5
3.028e+0	2.838e-5
3.029e+0	2.835e-5
3.030e+0	2.838e-5
3.031e+0	2.838e-5
3.032e+0	2.832e-5
3.033e+0	2.835e-5
3.034e+0	2.829e-5
3.035e+0	2.820e-5
3.036e+0	2.829e-5
3.037e+0	2.829e-5
3.038e+0	2.826e-5
3.039e+0	2.835e-5
3.040e+0	2.823e-5
3.041e+0	2.817e-5
3.042e+0	2.823e-5
3.043e+0	2.829e-5
3.044e+0	2.826e-5
3.045e+0	2.826e-5
3.046e+0	2.823e-5
3.047e+0	2.820e-5
3.048e+0	2.814e-5
3.049e+0	2.817e-5
3.050e+0	2.820e-5
3.051e+0	2.814e-5
3.052e+0	2.823e-5
3.053e+0	2.823e-5
3.054e+0	2.805e-5
3.055e+0	2.814e-5
3.056e+0	2.817e-5
3.057e+0	2.814e-5
3.058e+0	2.811e-5
3.059e+0	2.817e-5
3.060e+0	2.814e-5
3.061e+0	2.808e-5
3.062e+0	2.811e-5
3.063e+0	2.799e-5
3.064e+0	2.805e-5
3.065e+0	2.805e-5
3.066e+0	2.808e-5
3.067e+0	2.811e-5
3.068e+0	2.802e-5
3.069e+0	2.808e-5
3.070e+0	2.799e-5
3.071e+0	2.805e-5
3.072e+0	2.805e-5
3.073e+0	2.805e-5
3.074e+0	2.799e-5
3.075e+0	2.799e-5
3.076e+0	2.802e-5
3.077e+0	2.799e-5
3.078e+0	2.802e-5
3.079e+0	2.802e-5
3.080e+0	2.802e-5
3.081e+0	2.799e-5
3.082e+0	2.805e-5
3.083e+0	2.802e-5
3.084e+0	2.799e-5
3.085e+0	2.802e-5
3.086e+0	2.802e-5
3.087e+0	2.799e-5
3.088e+0	2.799e-5
3.089e+0	2.799e-5
3.090e+0	2.799e-5
3.091e+0	2.799e-5
3.092e+0	2.799e-5
3.093e+0	2.799e-5
3.094e+0	2.799e-5
3.095e+0	2.795e-5
3.096e+0	2.799e-5
3.097e+0	2.799e-5
3.098e+0	2.795e-5
3.099e+0	2.799e-5
3.100e+0	2.799e-5
3.101e+0	2.799e-5
3.102e+0	2.795e-5
3.103e+0	2.799e-5
3.104e+0	2.802e-5
3.105e+0	2.799e-5
3.106e+0	2.795e-5
3.107e+0	2.799e-5
3.108e+0	2.799e-5
3.109e+0	2.795e-5
3.110e+0	2.802e-5
3.111e+0	2.795e-5
3.112e+0	2.795e-5
3.113e+0	2.799e-5
3.114e+0	2.792e-5
3.115e+0	2.799e-5
3.116e+0	2.799e-5
3.117e+0	2.799e-5
3.118e+0	2.795e-5
3.119e+0	2.795e-5
3.120e+0	2.799e-5
3.121e+0	2.786e-5
3.122e+0	2.786e-5
3.123e+0	2.799e-5
3.124e+0	2.795e-5
3.125e+0	2.789e-5
3.126e+0	2.792e-5
3.127e+0	2.799e-5
3.128e+0	2.789e-5
3.129e+0	2.792e-5
3.130e+0	2.792e-5
3.131e+0	2.789e-5
3.132e+0	2.786e-5
3.133e+0	2.792e-5
3.134e+0	2.792e-5
3.135e+0	2.786e-5
3.136e+0	2.786e-5
3.137e+0	2.789e-5
3.138e+0	2.786e-5
3.139e+0	2.783e-5
3.140e+0	2.783e-5
3.141e+0	2.783e-5
3.142e+0	2.789e-5
3.143e+0	2.777e-5
3.144e+0	2.789e-5
3.145e+0	2.783e-5
3.146e+0	2.780e-5
3.147e+0	2.786e-5
3.148e+0	2.774e-5
3.149e+0	2.783e-5
3.150e+0	2.777e-5
3.151e+0	2.777e-5
3.152e+0	2.774e-5
3.153e+0	2.765e-5
3.154e+0	2.780e-5
3.155e+0	2.771e-5
3.156e+0	2.771e-5
3.157e+0	2.765e-5
3.158e+0	2.771e-5
3.159e+0	2.759e-5
3.160e+0	2.768e-5
3.161e+0	2.768e-5
3.162e+0	2.762e-5
3.163e+0	2.768e-5
3.164e+0	2.774e-5
3.165e+0	2.765e-5
3.166e+0	2.774e-5
3.167e+0	2.768e-5
3.168e+0	2.762e-5
3.169e+0	2.762e-5
3.170e+0	2.759e-5
3.171e+0	2.759e-5
3.172e+0	2.762e-5
3.173e+0	2.759e-5
3.174e+0	2.759e-5
3.175e+0	2.762e-5
3.176e+0	2.756e-5
3.177e+0	2.753e-5
3.178e+0	2.753e-5
3.179e+0	2.762e-5
3.180e+0	2.765e-5
3.181e+0	2.759e-5
3.182e+0	2.759e-5
3.183e+0	2.759e-5
3.184e+0	2.753e-5
3.185e+0	2.753e-5
3.186e+0	2.753e-5
3.187e+0	2.750e-5
3.188e+0	2.753e-5
3.189e+0	2.759e-5
3.190e+0	2.753e-5
3.191e+0	2.756e-5
3.192e+0	2.750e-5
3.193e+0	2.750e-5
3.194e+0	2.753e-5
3.195e+0	2.756e-5
3.196e+0	2.753e-5
3.197e+0	2.756e-5
3.198e+0	2.750e-5
3.199e+0	2.756e-5
3.200e+0	2.750e-5
3.201e+0	2.753e-5
3.202e+0	2.753e-5
3.203e+0	2.750e-5
3.204e+0	2.750e-5
3.205e+0	2.750e-5
3.206e+0	2.750e-5
3.207e+0	2.750e-5
3.208e+0	2.750e-5
3.209e+0	2.753e-5
3.210e+0	2.747e-5
3.211e+0	2.750e-5
3.212e+0	2.747e-5
3.213e+0	2.753e-5
3.214e+0	2.750e-5
3.215e+0	2.750e-5
3.216e+0	2.747e-5
3.217e+0	2.750e-5
3.218e+0	2.750e-5
3.219e+0	2.750e-5
3.220e+0	2.747e-5
3.221e+0	2.750e-5
3.222e+0	2.747e-5
3.223e+0	2.750e-5
3.224e+0	2.747e-5
3.225e+0	2.750e-5
3.226e+0	2.750e-5
3.227e+0	2.750e-5
3.228e+0	2.750e-5
3.229e+0	2.750e-5
3.230e+0	2.747e-5
3.231e+0	2.750e-5
3.232e+0	2.747e-5
3.233e+0	2.750e-5
3.234e+0	2.750e-5
3.235e+0	2.750e-5
3.236e+0	2.747e-5
3.237e+0	2.747e-5
3.238e+0	2.747e-5
3.239e+0	2.750e-5
3.240e+0	2.750e-5
3.241e+0	2.747e-5
3.242e+0	2.744e-5
3.243e+0	2.750e-5
3.244e+0	2.750e-5
3.245e+0	2.744e-5
3.246e+0	2.750e-5
3.247e+0	2.750e-5
3.248e+0	2.747e-5
3.249e+0	2.737e-5
3.250e+0	2.747e-5
3.251e+0	2.747e-5
3.252e+0	2.744e-5
3.253e+0	2.747e-5
3.254e+0	2.741e-5
3.255e+0	2.747e-5
3.256e+0	2.737e-5
3.257e+0	2.744e-5
3.258e+0	2.737e-5
3.259e+0	2.741e-5
3.260e+0	2.744e-5
3.261e+0	2.750e-5
3.262e+0	2.747e-5
3.263e+0	2.744e-5
3.264e+0	2.741e-5
3.265e+0	2.728e-5
3.266e+0	2.744e-5
3.267e+0	2.744e-5
3.268e+0	2.737e-5
3.269e+0	2.731e-5
3.270e+0	2.731e-5
3.271e+0	2.734e-5
3.272e+0	2.731e-5
3.273e+0	2.734e-5
3.274e+0	2.725e-5
3.275e+0	2.725e-5
3.276e+0	2.734e-5
3.277e+0	2.737e-5
3.278e+0	2.731e-5
3.279e+0	2.741e-5
3.280e+0	2.725e-5
3.281e+0	2.728e-5
3.282e+0	2.719e-5
3.283e+0	2.722e-5
3.284e+0	2.722e-5
3.285e+0	2.737e-5
3.286e+0	2.725e-5
3.287e+0	2.719e-5
3.288e+0	2.710e-5
3.289e+0	2.716e-5
3.290e+0	2.719e-5
3.291e+0	2.716e-5
3.292e+0	2.713e-5
3.293e+0	2.710e-5
3.294e+0	2.710e-5
3.295e+0	2.710e-5
3.296e+0	2.713e-5
3.297e+0	2.716e-5
3.298e+0	2.713e-5
3.299e+0	2.707e-5
3.300e+0	2.719e-5
3.301e+0	2.716e-5
3.302e+0	2.707e-5
3.303e+0	2.710e-5
3.304e+0	2.710e-5
3.305e+0	2.710e-5
3.306e+0	2.704e-5
3.307e+0	2.710e-5
3.308e+0	2.704e-5
3.309e+0	2.704e-5
3.310e+0	2.698e-5
3.311e+0	2.710e-5
3.312e+0	2.704e-5
3.313e+0	2.704e-5
3.314e+0	2.701e-5
3.315e+0	2.704e-5
3.316e+0	2.701e-5
3.317e+0	2.704e-5
3.318e+0	2.701e-5
3.319e+0	2.701e-5
3.320e+0	2.701e-5
3.321e+0	2.707e-5
3.322e+0	2.701e-5
3.323e+0	2.707e-5
3.324e+0	2.701e-5
3.325e+0	2.701e-5
3.326e+0	2.704e-5
3.327e+0	2.701e-5
3.328e+0	2.698e-5
3.329e+0	2.704e-5
3.330e+0	2.704e-5
3.331e+0	2.701e-5
3.332e+0	2.698e-5
3.333e+0	2.701e-5
3.334e+0	2.704e-5
3.335e+0	2.701e-5
3.336e+0	2.698e-5
3.337e+0	2.701e-5
3.338e+0	2.701e-5
3.339e+0	2.701e-5
3.340e+0	2.698e-5
3.341e+0	2.701e-5
3.342e+0	2.701e-5
3.343e+0	2.701e-5
3.344e+0	2.698e-5
3.345e+0	2.698e-5
3.346e+0	2.698e-5
3.347e+0	2.701e-5
3.348e+0	2.698e-5
3.349e+0	2.701e-5
3.350e+0	2.698e-5
3.351e+0	2.701e-5
3.352e+0	2.701e-5
3.353e+0	2.701e-5
3.354e+0	2.698e-5
3.355e+0	2.701e-5
3.356e+0	2.698e-5
3.357e+0	2.701e-5
3.358e+0	2.701e-5
3.359e+0	2.701e-5
3.360e+0	2.698e-5
3.361e+0	2.701e-5
3.362e+0	2.698e-5
3.363e+0	2.701e-5
3.364e+0	2.695e-5
3.365e+0	2.701e-5
3.366e+0	2.698e-5
3.367e+0	2.698e-5
3.368e+0	2.698e-5
3.369e+0	2.701e-5
3.370e+0	2.695e-5
3.371e+0	2.701e-5
3.372e+0	2.701e-5
3.373e+0	2.698e-5
3.374e+0	2.695e-5
3.375e+0	2.701e-5
3.376e+0	2.698e-5
3.377e+0	2.698e-5
3.378e+0	2.698e-5
3.379e+0	2.701e-5
3.380e+0	2.698e-5
3.381e+0	2.698e-5
3.382e+0	2.689e-5
3.383e+0	2.695e-5
3.384e+0	2.698e-5
3.385e+0	2.698e-5
3.386e+0	2.695e-5
3.387e+0	2.701e-5
3.388e+0	2.692e-5
3.389e+0	2.692e-5
3.390e+0	2.698e-5
3.391e+0	2.686e-5
3.392e+0	2.692e-5
3.393e+0	2.692e-5
3.394e+0	2.689e-5
3.395e+0	2.698e-5
3.396e+0	2.692e-5
3.397e+0	2.683e-5
3.398e+0	2.676e-5
3.399e+0	2.689e-5
3.400e+0	2.692e-5
3.401e+0	2.698e-5
3.402e+0	2.679e-5
3.403e+0	2.689e-5
3.404e+0	2.683e-5
3.405e+0	2.689e-5
3.406e+0	2.695e-5
3.407e+0	2.698e-5
3.408e+0	2.679e-5
3.409e+0	2.683e-5
3.410e+0	2.689e-5
3.411e+0	2.686e-5
3.412e+0	2.676e-5
3.413e+0	2.689e-5
3.414e+0	2.673e-5
3.415e+0	2.670e-5
3.416e+0	2.661e-5
3.417e+0	2.667e-5
3.418e+0	2.670e-5
3.419e+0	2.667e-5
3.420e+0	2.664e-5
3.421e+0	2.661e-5
3.422e+0	2.670e-5
3.423e+0	2.661e-5
3.424e+0	2.673e-5
3.425e+0	2.667e-5
3.426e+0	2.661e-5
3.427e+0	2.664e-5
3.428e+0	2.673e-5
3.429e+0	2.670e-5
3.430e+0	2.664e-5
3.431e+0	2.661e-5
3.432e+0	2.661e-5
3.433e+0	2.667e-5
3.434e+0	2.661e-5
3.435e+0	2.661e-5
3.436e+0	2.652e-5
3.437e+0	2.664e-5
3.438e+0	2.655e-5
3.439e+0	2.655e-5
3.440e+0	2.658e-5
3.441e+0	2.655e-5
3.442e+0	2.655e-5
3.443e+0	2.658e-5
3.444e+0	2.658e-5
3.445e+0	2.661e-5
3.446e+0	2.652e-5
3.447e+0	2.655e-5
3.448e+0	2.649e-5
3.449e+0	2.658e-5
3.450e+0	2.649e-5
3.451e+0	2.655e-5
3.452e+0	2.652e-5
3.453e+0	2.652e-5
3.454e+0	2.652e-5
3.455e+0	2.655e-5
3.456e+0	2.652e-5
3.457e+0	2.652e-5
3.458e+0	2.652e-5
3.459e+0	2.661e-5
3.460e+0	2.652e-5
3.461e+0	2.652e-5
3.462e+0	2.652e-5
3.463e+0	2.652e-5
3.464e+0	2.649e-5
3.465e+0	2.655e-5
3.466e+0	2.655e-5
3.467e+0	2.655e-5
3.468e+0	2.652e-5
3.469e+0	2.652e-5
3.470e+0	2.649e-5
3.471e+0	2.652e-5
3.472e+0	2.652e-5
3.473e+0	2.652e-5
3.474e+0	2.652e-5
3.475e+0	2.652e-5
3.476e+0	2.652e-5
3.477e+0	2.652e-5
3.478e+0	2.652e-5
3.479e+0	2.655e-5
3.480e+0	2.652e-5
3.481e+0	2.652e-5
3.482e+0	2.652e-5
3.483e+0	2.652e-5
3.484e+0	2.652e-5
3.485e+0	2.649e-5
3.486e+0	2.652e-5
3.487e+0	2.652e-5
3.488e+0	2.649e-5
3.489e+0	2.655e-5
3.490e+0	2.652e-5
3.491e+0	2.649e-5
3.492e+0	2.652e-5
3.493e+0	2.652e-5
3.494e+0	2.649e-5
3.495e+0	2.652e-5
3.496e+0	2.649e-5
3.497e+0	2.652e-5
3.498e+0	2.646e-5
3.499e+0	2.649e-5
3.500e+0	2.652e-5
3.501e+0	2.649e-5
3.502e+0	2.649e-5
3.503e+0	2.649e-5
3.504e+0	2.652e-5
3.505e+0	2.649e-5
3.506e+0	2.649e-5
3.507e+0	2.643e-5
3.508e+0	2.643e-5
3.509e+0	2.652e-5
3.510e+0	2.649e-5
3.511e+0	2.646e-5
3.512e+0	2.643e-5
3.513e+0	2.652e-5
3.514e+0	2.640e-5
3.515e+0	2.646e-5
3.516e+0	2.649e-5
3.517e+0	2.652e-5
3.518e+0	2.643e-5
3.519e+0	2.649e-5
3.520e+0	2.646e-5
3.521e+0	2.643e-5
3.522e+0	2.643e-5
3.523e+0	2.646e-5
3.524e+0	2.637e-5
3.525e+0	2.643e-5
3.526e+0	2.637e-5
3.527e+0	2.634e-5
3.528e+0	2.640e-5
3.529e+0	2.637e-5
3.530e+0	2.640e-5
3.531e+0	2.646e-5
3.532e+0	2.637e-5
3.533e+0	2.646e-5
3.534e+0	2.631e-5
3.535e+0	2.634e-5
3.536e+0	2.631e-5
3.537e+0	2.631e-5
3.538e+0	2.637e-5
3.539e+0	2.646e-5
3.540e+0	2.640e-5
3.541e+0	2.634e-5
3.542e+0	2.628e-5
3.543e+0	2.631e-5
3.544e+0	2.634e-5
3.545e+0	2.631e-5
3.546e+0	2.634e-5
3.547e+0	2.634e-5
3.548e+0	2.637e-5
3.549e+0	2.615e-5
3.550e+0	2.628e-5
3.551e+0	2.628e-5
3.552e+0	2.624e-5
3.553e+0	2.624e-5
3.554e+0	2.621e-5
3.555e+0	2.618e-5
3.556e+0	2.624e-5
3.557e+0	2.628e-5
3.558e+0	2.612e-5
3.559e+0	2.618e-5
3.560e+0	2.612e-5
3.561e+0	2.618e-5
3.562e+0	2.621e-5
3.563e+0	2.621e-5
3.564e+0	2.621e-5
3.565e+0	2.612e-5
3.566e+0	2.621e-5
3.567e+0	2.609e-5
3.568e+0	2.618e-5
3.569e+0	2.609e-5
3.570e+0	2.621e-5
3.571e+0	2.612e-5
3.572e+0	2.609e-5
3.573e+0	2.615e-5
3.574e+0	2.609e-5
3.575e+0	2.609e-5
3.576e+0	2.609e-5
3.577e+0	2.606e-5
3.578e+0	2.621e-5
3.579e+0	2.606e-5
3.580e+0	2.609e-5
3.581e+0	2.609e-5
3.582e+0	2.606e-5
3.583e+0	2.609e-5
3.584e+0	2.615e-5
3.585e+0	2.606e-5
3.586e+0	2.606e-5
3.587e+0	2.603e-5
3.588e+0	2.603e-5
3.589e+0	2.603e-5
3.590e+0	2.606e-5
3.591e+0	2.606e-5
3.592e+0	2.603e-5
3.593e+0	2.603e-5
3.594e+0	2.603e-5
3.595e+0	2.603e-5
3.596e+0	2.612e-5
3.597e+0	2.603e-5
3.598e+0	2.603e-5
3.599e+0	2.606e-5
3.600e+0	2.609e-5
3.601e+0	2.603e-5
3.602e+0	2.603e-5
3.603e+0	2.603e-5
3.604e+0	2.603e-5
3.605e+0	2.603e-5
3.606e+0	2.603e-5
3.607e+0	2.603e-5
3.608e+0	2.603e-5
3.609e+0	2.600e-5
3.610e+0	2.603e-5
3.611e+0	2.603e-5
3.612e+0	2.603e-5
3.613e+0	2.603e-5
3.614e+0	2.600e-5
3.615e+0	2.603e-5
3.616e+0	2.603e-5
3.617e+0	2.600e-5
3.618e+0	2.603e-5
3.619e+0	2.603e-5
3.620e+0	2.603e-5
3.621e+0	2.603e-5
3.622e+0	2.603e-5
3.623e+0	2.603e-5
3.624e+0	2.603e-5
3.625e+0	2.603e-5
3.626e+0	2.603e-5
3.627e+0	2.603e-5
3.628e+0	2.603e-5
3.629e+0	2.603e-5
3.630e+0	2.603e-5
3.631e+0	2.603e-5
3.632e+0	2.603e-5
3.633e+0	2.600e-5
3.634e+0	2.603e-5
3.635e+0	2.603e-5
3.636e+0	2.600e-5
3.637e+0	2.600e-5
3.638e+0	2.600e-5
3.639e+0	2.597e-5
3.640e+0	2.603e-5
3.641e+0	2.603e-5
3.642e+0	2.600e-5
3.643e+0	2.600e-5
3.644e+0	2.600e-5
3.645e+0	2.600e-5
3.646e+0	2.600e-5
3.647e+0	2.597e-5
3.648e+0	2.600e-5
3.649e+0	2.600e-5
3.650e+0	2.600e-5
3.651e+0	2.597e-5
3.652e+0	2.594e-5
3.653e+0	2.600e-5
3.654e+0	2.600e-5
3.655e+0	2.600e-5
3.656e+0	2.600e-5
3.657e+0	2.600e-5
3.658e+0	2.600e-5
3.659e+0	2.600e-5
3.660e+0	2.600e-5
3.661e+0	2.600e-5
3.662e+0	2.597e-5
3.663e+0	2.600e-5
3.664e+0	2.594e-5
3.665e+0	2.591e-5
3.666e+0	2.600e-5
3.667e+0	2.594e-5
3.668e+0	2.594e-5
3.669e+0	2.594e-5
3.670e+0	2.591e-5
3.671e+0	2.585e-5
3.672e+0	2.600e-5
3.673e+0	2.591e-5
3.674e+0	2.594e-5
3.675e+0	2.591e-5
3.676e+0	2.591e-5
3.677e+0	2.591e-5
3.678e+0	2.576e-5
3.679e+0	2.600e-5
3.680e+0	2.597e-5
3.681e+0	2.588e-5
3.682e+0	2.588e-5
3.683e+0	2.588e-5
3.684e+0	2.582e-5
3.685e+0	2.591e-5
3.686e+0	2.585e-5
3.687e+0	2.585e-5
3.688e+0	2.582e-5
3.689e+0	2.579e-5
3.690e+0	2.594e-5
3.691e+0	2.579e-5
3.692e+0	2.582e-5
3.693e+0	2.582e-5
3.694e+0	2.576e-5
3.695e+0	2.582e-5
3.696e+0	2.570e-5
3.697e+0	2.576e-5
3.698e+0	2.570e-5
3.699e+0	2.570e-5
3.700e+0	2.579e-5
3.701e+0	2.585e-5
3.702e+0	2.579e-5
3.703e+0	2.573e-5
3.704e+0	2.573e-5
3.705e+0	2.573e-5
3.706e+0	2.582e-5
3.707e+0	2.579e-5
3.708e+0	2.557e-5
3.709e+0	2.566e-5
3.710e+0	2.560e-5
3.711e+0	2.570e-5
3.712e+0	2.563e-5
3.713e+0	2.563e-5
3.714e+0	2.560e-5
3.715e+0	2.560e-5
3.716e+0	2.570e-5
3.717e+0	2.563e-5
3.718e+0	2.573e-5
3.719e+0	2.557e-5
3.720e+0	2.557e-5
3.721e+0	2.560e-5
3.722e+0	2.554e-5
3.723e+0	2.560e-5
3.724e+0	2.563e-5
3.725e+0	2.560e-5
3.726e+0	2.563e-5
3.727e+0	2.563e-5
3.728e+0	2.557e-5
3.729e+0	2.560e-5
3.730e+0	2.554e-5
3.731e+0	2.557e-5
3.732e+0	2.554e-5
3.733e+0	2.557e-5
3.734e+0	2.557e-5
3.735e+0	2.560e-5
3.736e+0	2.554e-5
3.737e+0	2.554e-5
3.738e+0	2.563e-5
3.739e+0	2.557e-5
3.740e+0	2.563e-5
3.741e+0	2.557e-5
3.742e+0	2.554e-5
3.743e+0	2.557e-5
3.744e+0	2.557e-5
3.745e+0	2.563e-5
3.746e+0	2.554e-5
3.747e+0	2.554e-5
3.748e+0	2.554e-5
3.749e+0	2.557e-5
3.750e+0	2.557e-5
3.751e+0	2.554e-5
3.752e+0	2.554e-5
3.753e+0	2.554e-5
3.754e+0	2.554e-5
3.755e+0	2.554e-5
3.756e+0	2.554e-5
3.757e+0	2.554e-5
3.758e+0	2.554e-5
3.759e+0	2.557e-5
3.760e+0	2.551e-5
3.761e+0	2.554e-5
3.762e+0	2.554e-5
3.763e+0	2.554e-5
3.764e+0	2.554e-5
3.765e+0	2.554e-5
3.766e+0	2.554e-5
3.767e+0	2.554e-5
3.768e+0	2.551e-5
3.769e+0	2.554e-5
3.770e+0	2.554e-5
3.771e+0	2.557e-5
3.772e+0	2.554e-5
3.773e+0	2.554e-5
3.774e+0	2.551e-5
3.775e+0	2.554e-5
3.776e+0	2.554e-5
3.777e+0	2.554e-5
3.778e+0	2.554e-5
3.779e+0	2.554e-5
3.780e+0	2.554e-5
3.781e+0	2.551e-5
3.782e+0	2.551e-5
3.783e+0	2.554e-5
3.784e+0	2.551e-5
3.785e+0	2.554e-5
3.786e+0	2.554e-5
3.787e+0	2.551e-5
3.788e+0	2.551e-5
3.789e+0	2.554e-5
3.790e+0	2.554e-5
3.791e+0	2.554e-5
3.792e+0	2.551e-5
3.793e+0	2.554e-5
3.794e+0	2.551e-5
3.795e+0	2.551e-5
3.796e+0	2.554e-5
3.797e+0	2.551e-5
3.798e+0	2.548e-5
3.799e+0	2.554e-5
3.800e+0	2.551e-5
3.801e+0	2.554e-5
3.802e+0	2.551e-5
3.803e+0	2.554e-5
3.804e+0	2.548e-5
3.805e+0	2.554e-5
3.806e+0	2.551e-5
3.807e+0	2.554e-5
3.808e+0	2.545e-5
3.809e+0	2.551e-5
3.810e+0	2.551e-5
3.811e+0	2.548e-5
3.812e+0	2.554e-5
3.813e+0	2.551e-5
3.814e+0	2.551e-5
3.815e+0	2.551e-5
3.816e+0	2.542e-5
3.817e+0	2.551e-5
3.818e+0	2.542e-5
3.819e+0	2.548e-5
3.820e+0	2.548e-5
3.821e+0	2.542e-5
3.822e+0	2.533e-5
3.823e+0	2.548e-5
3.824e+0	2.548e-5
3.825e+0	2.548e-5
3.826e+0	2.542e-5
3.827e+0	2.542e-5
3.828e+0	2.554e-5
3.829e+0	2.545e-5
3.830e+0	2.542e-5
3.831e+0	2.542e-5
3.832e+0	2.542e-5
3.833e+0	2.545e-5
3.834e+0	2.548e-5
3.835e+0	2.533e-5
3.836e+0	2.548e-5
3.837e+0	2.539e-5
3.838e+0	2.527e-5
3.839e+0	2.542e-5
3.840e+0	2.536e-5
3.841e+0	2.542e-5
3.842e+0	2.536e-5
3.843e+0	2.539e-5
3.844e+0	2.530e-5
3.845e+0	2.533e-5
3.846e+0	2.530e-5
3.847e+0	2.530e-5
3.848e+0	2.533e-5
3.849e+0	2.530e-5
3.850e+0	2.521e-5
3.851e+0	2.533e-5
3.852e+0	2.530e-5
3.853e+0	2.518e-5
3.854e+0	2.527e-5
3.855e+0	2.524e-5
3.856e+0	2.521e-5
3.857e+0	2.533e-5
3.858e+0	2.524e-5
3.859e+0	2.527e-5
3.860e+0	2.521e-5
3.861e+0	2.518e-5
3.862e+0	2.518e-5
3.863e+0	2.527e-5
3.864e+0	2.518e-5
3.865e+0	2.521e-5
3.866e+0	2.521e-5
3.867e+0	2.521e-5
3.868e+0	2.518e-5
3.869e+0	2.524e-5
3.870e+0	2.508e-5
3.871e+0	2.515e-5
3.872e+0	2.511e-5
3.873e+0	2.515e-5
3.874e+0	2.527e-5
3.875e+0	2.518e-5
3.876e+0	2.515e-5
3.877e+0	2.511e-5
3.878e+0	2.511e-5
3.879e+0	2.515e-5
3.880e+0	2.515e-5
3.881e+0	2.508e-5
3.882e+0	2.508e-5
3.883e+0	2.508e-5
3.884e+0	2.511e-5
3.885e+0	2.515e-5
3.886e+0	2.511e-5
3.887e+0	2.511e-5
3.888e+0	2.505e-5
3.889e+0	2.511e-5
3.890e+0	2.508e-5
3.891e+0	2.511e-5
3.892e+0	2.508e-5
3.893e+0	2.505e-5
3.894e+0	2.502e-5
3.895e+0	2.505e-5
3.896e+0	2.502e-5
3.897e+0	2.515e-5
3.898e+0	2.505e-5
3.899e+0	2.505e-5
3.900e+0	2.508e-5
3.901e+0	2.508e-5
3.902e+0	2.511e-5
3.903e+0	2.508e-5
3.904e+0	2.505e-5
3.905e+0	2.505e-5
3.906e+0	2.502e-5
3.907e+0	2.508e-5
3.908e+0	2.505e-5
3.909e+0	2.508e-5
3.910e+0	2.508e-5
3.911e+0	2.505e-5
3.912e+0	2.502e-5
3.913e+0	2.505e-5
3.914e+0	2.505e-5
3.915e+0	2.508e-5
3.916e+0	2.508e-5
3.917e+0	2.505e-5
3.918e+0	2.505e-5
3.919e+0	2.505e-5
3.920e+0	2.508e-5
3.921e+0	2.505e-5
3.922e+0	2.505e-5
3.923e+0	2.505e-5
3.924e+0	2.502e-5
3.925e+0	2.505e-5
3.926e+0	2.505e-5
3.927e+0	2.508e-5
3.928e+0	2.505e-5
3.929e+0	2.505e-5
3.930e+0	2.502e-5
3.931e+0	2.508e-5
3.932e+0	2.502e-5
3.933e+0	2.505e-5
3.934e+0	2.505e-5
3.935e+0	2.502e-5
3.936e+0	2.505e-5
3.937e+0	2.505e-5
3.938e+0	2.502e-5
3.939e+0	2.508e-5
3.940e+0	2.502e-5
3.941e+0	2.502e-5
3.942e+0	2.505e-5
3.943e+0	2.505e-5
3.944e+0	2.505e-5
3.945e+0	2.505e-5
3.946e+0	2.502e-5
3.947e+0	2.505e-5
3.948e+0	2.502e-5
3.949e+0	2.505e-5
3.950e+0	2.505e-5
3.951e+0	2.505e-5
3.952e+0	2.505e-5
3.953e+0	2.505e-5
3.954e+0	2.502e-5
3.955e+0	2.505e-5
3.956e+0	2.502e-5
3.957e+0	2.505e-5
3.958e+0	2.499e-5
3.959e+0	2.505e-5
3.960e+0	2.502e-5
3.961e+0	2.505e-5
3.962e+0	2.502e-5
3.963e+0	2.505e-5
3.964e+0	2.499e-5
3.965e+0	2.499e-5
3.966e+0	2.502e-5
3.967e+0	2.499e-5
3.968e+0	2.499e-5
3.969e+0	2.499e-5
3.970e+0	2.493e-5
3.971e+0	2.502e-5
3.972e+0	2.499e-5
3.973e+0	2.502e-5
3.974e+0	2.496e-5
3.975e+0	2.499e-5
3.976e+0	2.502e-5
3.977e+0	2.493e-5
3.978e+0	2.493e-5
3.979e+0	2.499e-5
3.980e+0	2.499e-5
3.981e+0	2.493e-5
3.982e+0	2.502e-5
3.983e+0	2.496e-5
3.984e+0	2.499e-5
3.985e+0	2.499e-5
3.986e+0	2.496e-5
3.987e+0	2.499e-5
3.988e+0	2.502e-5
3.989e+0	2.496e-5
3.990e+0	2.496e-5
3.991e+0	2.493e-5
3.992e+0	2.496e-5
3.993e+0	2.490e-5
3.994e+0	2.490e-5
3.995e+0	2.496e-5
3.996e+0	2.487e-5
3.997e+0	2.487e-5
3.998e+0	2.490e-5
3.999e+0	2.484e-5
4.000e+0	2.499e-5
4.001e+0	2.484e-5
4.002e+0	2.490e-5
4.003e+0	2.490e-5
4.004e+0	2.490e-5
4.005e+0	2.487e-5
4.006e+0	2.481e-5
4.007e+0	2.484e-5
4.008e+0	2.478e-5
4.009e+0	2.484e-5
4.010e+0	2.481e-5
4.011e+0	2.481e-5
4.012e+0	2.490e-5
4.013e+0	2.490e-5
4.014e+0	2.487e-5
4.015e+0	2.481e-5
4.016e+0	2.481e-5
4.017e+0	2.481e-5
4.018e+0	2.487e-5
4.019e+0	2.475e-5
4.020e+0	2.490e-5
4.021e+0	2.478e-5
4.022e+0	2.475e-5
4.023e+0	2.478e-5
4.024e+0	2.484e-5
4.025e+0	2.478e-5
4.026e+0	2.481e-5
4.027e+0	2.475e-5
4.028e+0	2.472e-5
4.029e+0	2.478e-5
4.030e+0	2.472e-5
4.031e+0	2.472e-5
4.032e+0	2.469e-5
4.033e+0	2.466e-5
4.034e+0	2.481e-5
4.035e+0	2.472e-5
4.036e+0	2.469e-5
4.037e+0	2.478e-5
4.038e+0	2.475e-5
4.039e+0	2.466e-5
4.040e+0	2.478e-5
4.041e+0	2.484e-5
4.042e+0	2.466e-5
4.043e+0	2.472e-5
4.044e+0	2.472e-5
4.045e+0	2.466e-5
4.046e+0	2.472e-5
4.047e+0	2.472e-5
4.048e+0	2.469e-5
4.049e+0	2.463e-5
4.050e+0	2.472e-5
4.051e+0	2.466e-5
4.052e+0	2.475e-5
4.053e+0	2.457e-5
4.054e+0	2.463e-5
4.055e+0	2.457e-5
4.056e+0	2.466e-5
4.057e+0	2.466e-5
4.058e+0	2.460e-5
4.059e+0	2.460e-5
4.060e+0	2.466e-5
4.061e+0	2.463e-5
4.062e+0	2.463e-5
4.063e+0	2.460e-5
4.064e+0	2.460e-5
4.065e+0	2.466e-5
4.066e+0	2.463e-5
4.067e+0	2.463e-5
4.068e+0	2.457e-5
4.069e+0	2.460e-5
4.070e+0	2.463e-5
4.071e+0	2.463e-5
4.072e+0	2.460e-5
4.073e+0	2.460e-5
4.074e+0	2.463e-5
4.075e+0	2.460e-5
4.076e+0	2.460e-5
4.077e+0	2.460e-5
4.078e+0	2.460e-5
4.079e+0	2.457e-5
4.080e+0	2.457e-5
4.081e+0	2.457e-5
4.082e+0	2.463e-5
4.083e+0	2.460e-5
4.084e+0	2.460e-5
4.085e+0	2.457e-5
4.086e+0	2.457e-5
4.087e+0	2.457e-5
4.088e+0	2.457e-5
4.089e+0	2.460e-5
4.090e+0	2.457e-5
4.091e+0	2.457e-5
4.092e+0	2.457e-5
4.093e+0	2.460e-5
4.094e+0	2.460e-5
4.095e+0	2.460e-5
4.096e+0	2.457e-5
4.097e+0	2.457e-5
4.098e+0	2.457e-5
4.099e+0	2.453e-5
4.100e+0	2.460e-5
4.101e+0	2.460e-5
4.102e+0	2.457e-5
4.103e+0	2.457e-5
4.104e+0	2.457e-5
4.105e+0	2.457e-5
4.106e+0	2.457e-5
4.107e+0	2.453e-5
4.108e+0	2.457e-5
4.109e+0	2.453e-5
4.110e+0	2.457e-5
4.111e+0	2.453e-5
4.112e+0	2.460e-5
4.113e+0	2.457e-5
4.114e+0	2.457e-5
4.115e+0	2.457e-5
4.116e+0	2.457e-5
4.117e+0	2.457e-5
4.118e+0	2.457e-5
4.119e+0	2.453e-5
4.120e+0	2.453e-5
4.121e+0	2.457e-5
4.122e+0	2.450e-5
4.123e+0	2.457e-5
4.124e+0	2.457e-5
4.125e+0	2.457e-5
4.126e+0	2.453e-5
4.127e+0	2.453e-5
4.128e+0	2.457e-5
4.129e+0	2.450e-5
4.130e+0	2.457e-5
4.131e+0	2.457e-5
4.132e+0	2.453e-5
4.133e+0	2.450e-5
4.134e+0	2.457e-5
4.135e+0	2.453e-5
4.136e+0	2.457e-5
4.137e+0	2.457e-5
4.138e+0	2.457e-5
4.139e+0	2.457e-5
4.140e+0	2.450e-5
4.141e+0	2.457e-5
4.142e+0	2.453e-5
4.143e+0	2.450e-5
4.144e+0	2.457e-5
4.145e+0	2.457e-5
4.146e+0	2.457e-5
4.147e+0	2.453e-5
4.148e+0	2.453e-5
4.149e+0	2.453e-5
4.150e+0	2.447e-5
4.151e+0	2.453e-5
4.152e+0	2.447e-5
4.153e+0	2.457e-5
4.154e+0	2.441e-5
4.155e+0	2.444e-5
4.156e+0	2.438e-5
4.157e+0	2.453e-5
4.158e+0	2.450e-5
4.159e+0	2.453e-5
4.160e+0	2.447e-5
4.161e+0	2.444e-5
4.162e+0	2.444e-5
4.163e+0	2.450e-5
4.164e+0	2.444e-5
4.165e+0	2.447e-5
4.166e+0	2.447e-5
4.167e+0	2.447e-5
4.168e+0	2.447e-5
4.169e+0	2.453e-5
4.170e+0	2.450e-5
4.171e+0	2.432e-5
4.172e+0	2.441e-5
4.173e+0	2.447e-5
4.174e+0	2.447e-5
4.175e+0	2.438e-5
4.176e+0	2.432e-5
4.177e+0	2.435e-5
4.178e+0	2.441e-5
4.179e+0	2.447e-5
4.180e+0	2.447e-5
4.181e+0	2.441e-5
4.182e+0	2.441e-5
4.183e+0	2.432e-5
4.184e+0	2.441e-5
4.185e+0	2.432e-5
4.186e+0	2.432e-5
4.187e+0	2.432e-5
4.188e+0	2.426e-5
4.189e+0	2.432e-5
4.190e+0	2.438e-5
4.191e+0	2.438e-5
4.192e+0	2.441e-5
4.193e+0	2.432e-5
4.194e+0	2.426e-5
4.195e+0	2.426e-5
4.196e+0	2.429e-5
4.197e+0	2.438e-5
4.198e+0	2.429e-5
4.199e+0	2.429e-5
4.200e+0	2.429e-5
4.201e+0	2.429e-5
4.202e+0	2.429e-5
4.203e+0	2.429e-5
4.204e+0	2.423e-5
4.205e+0	2.426e-5
4.206e+0	2.420e-5
4.207e+0	2.432e-5
4.208e+0	2.426e-5
4.209e+0	2.432e-5
4.210e+0	2.420e-5
4.211e+0	2.423e-5
4.212e+0	2.426e-5
4.213e+0	2.420e-5
4.214e+0	2.429e-5
4.215e+0	2.423e-5
4.216e+0	2.417e-5
4.217e+0	2.414e-5
4.218e+0	2.423e-5
4.219e+0	2.429e-5
4.220e+0	2.411e-5
4.221e+0	2.414e-5
4.222e+0	2.426e-5
4.223e+0	2.429e-5
4.224e+0	2.414e-5
4.225e+0	2.414e-5
4.226e+0	2.411e-5
4.227e+0	2.414e-5
4.228e+0	2.411e-5
4.229e+0	2.417e-5
4.230e+0	2.414e-5
4.231e+0	2.411e-5
4.232e+0	2.411e-5
4.233e+0	2.408e-5
4.234e+0	2.414e-5
4.235e+0	2.414e-5
4.236e+0	2.411e-5
4.237e+0	2.411e-5
4.238e+0	2.408e-5
4.239e+0	2.408e-5
4.240e+0	2.411e-5
4.241e+0	2.417e-5
4.242e+0	2.411e-5
4.243e+0	2.408e-5
4.244e+0	2.411e-5
4.245e+0	2.411e-5
4.246e+0	2.411e-5
4.247e+0	2.411e-5
4.248e+0	2.411e-5
4.249e+0	2.411e-5
4.250e+0	2.408e-5
4.251e+0	2.411e-5
4.252e+0	2.411e-5
4.253e+0	2.411e-5
4.254e+0	2.411e-5
4.255e+0	2.417e-5
4.256e+0	2.411e-5
4.257e+0	2.411e-5
4.258e+0	2.408e-5
4.259e+0	2.411e-5
4.260e+0	2.408e-5
4.261e+0	2.408e-5
4.262e+0	2.408e-5
4.263e+0	2.408e-5
4.264e+0	2.408e-5
4.265e+0	2.408e-5
4.266e+0	2.405e-5
4.267e+0	2.411e-5
4.268e+0	2.411e-5
4.269e+0	2.411e-5
4.270e+0	2.408e-5
4.271e+0	2.408e-5
4.272e+0	2.408e-5
4.273e+0	2.408e-5
4.274e+0	2.411e-5
4.275e+0	2.408e-5
4.276e+0	2.405e-5
4.277e+0	2.408e-5
4.278e+0	2.411e-5
4.279e+0	2.408e-5
4.280e+0	2.408e-5
4.281e+0	2.408e-5
4.282e+0	2.408e-5
4.283e+0	2.408e-5
4.284e+0	2.408e-5
4.285e+0	2.408e-5
4.286e+0	2.405e-5
4.287e+0	2.408e-5
4.288e+0	2.405e-5
4.289e+0	2.408e-5
4.290e+0	2.408e-5
4.291e+0	2.408e-5
4.292e+0	2.408e-5
4.293e+0	2.408e-5
4.294e+0	2.405e-5
4.295e+0	2.408e-5
4.296e+0	2.408e-5
4.297e+0	2.408e-5
4.298e+0	2.408e-5
4.299e+0	2.405e-5
4.300e+0	2.408e-5
4.301e+0	2.408e-5
4.302e+0	2.408e-5
4.303e+0	2.408e-5
4.304e+0	2.402e-5
4.305e+0	2.408e-5
4.306e+0	2.408e-5
4.307e+0	2.405e-5
4.308e+0	2.408e-5
4.309e+0	2.408e-5
4.310e+0	2.408e-5
4.311e+0	2.408e-5
4.312e+0	2.408e-5
4.313e+0	2.408e-5
4.314e+0	2.405e-5
4.315e+0	2.408e-5
4.316e+0	2.405e-5
4.317e+0	2.405e-5
4.318e+0	2.408e-5
4.319e+0	2.408e-5
4.320e+0	2.408e-5
4.321e+0	2.405e-5
4.322e+0	2.398e-5
4.323e+0	2.408e-5
4.324e+0	2.405e-5
4.325e+0	2.405e-5
4.326e+0	2.398e-5
4.327e+0	2.408e-5
4.328e+0	2.405e-5
4.329e+0	2.405e-5
4.330e+0	2.408e-5
4.331e+0	2.405e-5
4.332e+0	2.408e-5
4.333e+0	2.402e-5
4.334e+0	2.405e-5
4.335e+0	2.408e-5
4.336e+0	2.398e-5
4.337e+0	2.405e-5
4.338e+0	2.405e-5
4.339e+0	2.405e-5
4.340e+0	2.402e-5
4.341e+0	2.402e-5
4.342e+0	2.402e-5
4.343e+0	2.398e-5
4.344e+0	2.398e-5
4.345e+0	2.402e-5
4.346e+0	2.405e-5
4.347e+0	2.398e-5
4.348e+0	2.405e-5
4.349e+0	2.398e-5
4.350e+0	2.398e-5
4.351e+0	2.398e-5
4.352e+0	2.402e-5
4.353e+0	2.402e-5
4.354e+0	2.405e-5
4.355e+0	2.395e-5
4.356e+0	2.395e-5
4.357e+0	2.405e-5
4.358e+0	2.405e-5
4.359e+0	2.402e-5
4.360e+0	2.398e-5
4.361e+0	2.389e-5
4.362e+0	2.395e-5
4.363e+0	2.395e-5
4.364e+0	2.395e-5
4.365e+0	2.395e-5
4.366e+0	2.389e-5
4.367e+0	2.398e-5
4.368e+0	2.392e-5
4.369e+0	2.395e-5
4.370e+0	2.389e-5
4.371e+0	2.383e-5
4.372e+0	2.389e-5
4.373e+0	2.374e-5
4.374e+0	2.383e-5
4.375e+0	2.389e-5
4.376e+0	2.389e-5
4.377e+0	2.380e-5
4.378e+0	2.389e-5
4.379e+0	2.392e-5
4.380e+0	2.380e-5
4.381e+0	2.386e-5
4.382e+0	2.380e-5
4.383e+0	2.386e-5
4.384e+0	2.389e-5
4.385e+0	2.389e-5
4.386e+0	2.383e-5
4.387e+0	2.380e-5
4.388e+0	2.380e-5
4.389e+0	2.368e-5
4.390e+0	2.380e-5
4.391e+0	2.380e-5
4.392e+0	2.383e-5
4.393e+0	2.383e-5
4.394e+0	2.377e-5
4.395e+0	2.380e-5
4.396e+0	2.380e-5
4.397e+0	2.380e-5
4.398e+0	2.374e-5
4.399e+0	2.377e-5
4.400e+0	2.368e-5
4.401e+0	2.380e-5
4.402e+0	2.371e-5
4.403e+0	2.374e-5
4.404e+0	2.374e-5
4.405e+0	2.371e-5
4.406e+0	2.365e-5
4.407e+0	2.377e-5
4.408e+0	2.380e-5
4.409e+0	2.368e-5
4.410e+0	2.365e-5
4.411e+0	2.368e-5
4.412e+0	2.365e-5
4.413e+0	2.374e-5
4.414e+0	2.380e-5
4.415e+0	2.368e-5
4.416e+0	2.368e-5
4.417e+0	2.368e-5
4.418e+0	2.368e-5
4.419e+0	2.371e-5
4.420e+0	2.365e-5
4.421e+0	2.362e-5
4.422e+0	2.365e-5
4.423e+0	2.365e-5
4.424e+0	2.368e-5
4.425e+0	2.368e-5
4.426e+0	2.362e-5
4.427e+0	2.362e-5
4.428e+0	2.365e-5
4.429e+0	2.365e-5
4.430e+0	2.371e-5
4.431e+0	2.371e-5
4.432e+0	2.365e-5
4.433e+0	2.368e-5
4.434e+0	2.365e-5
4.435e+0	2.362e-5
4.436e+0	2.359e-5
4.437e+0	2.359e-5
4.438e+0	2.359e-5
4.439e+0	2.359e-5
4.440e+0	2.356e-5
4.441e+0	2.365e-5
4.442e+0	2.362e-5
4.443e+0	2.362e-5
4.444e+0	2.362e-5
4.445e+0	2.365e-5
4.446e+0	2.362e-5
4.447e+0	2.362e-5
4.448e+0	2.359e-5
4.449e+0	2.359e-5
4.450e+0	2.356e-5
4.451e+0	2.359e-5
4.452e+0	2.356e-5
4.453e+0	2.362e-5
4.454e+0	2.362e-5
4.455e+0	2.359e-5
4.456e+0	2.365e-5
4.457e+0	2.359e-5
4.458e+0	2.356e-5
4.459e+0	2.359e-5
4.460e+0	2.362e-5
4.461e+0	2.359e-5
4.462e+0	2.356e-5
4.463e+0	2.359e-5
4.464e+0	2.359e-5
4.465e+0	2.359e-5
4.466e+0	2.359e-5
4.467e+0	2.359e-5
4.468e+0	2.359e-5
4.469e+0	2.359e-5
4.470e+0	2.359e-5
4.471e+0	2.359e-5
4.472e+0	2.359e-5
4.473e+0	2.359e-5
4.474e+0	2.356e-5
4.475e+0	2.359e-5
4.476e+0	2.356e-5
4.477e+0	2.359e-5
4.478e+0	2.359e-5
4.479e+0	2.362e-5
4.480e+0	2.356e-5
4.481e+0	2.362e-5
4.482e+0	2.359e-5
4.483e+0	2.359e-5
4.484e+0	2.359e-5
4.485e+0	2.359e-5
4.486e+0	2.359e-5
4.487e+0	2.359e-5
4.488e+0	2.356e-5
4.489e+0	2.359e-5
4.490e+0	2.359e-5
4.491e+0	2.359e-5
4.492e+0	2.359e-5
4.493e+0	2.356e-5
4.494e+0	2.359e-5
4.495e+0	2.359e-5
4.496e+0	2.359e-5
4.497e+0	2.359e-5
4.498e+0	2.356e-5
4.499e+0	2.359e-5
4.500e+0	2.359e-5
4.501e+0	2.359e-5
4.502e+0	2.356e-5
4.503e+0	2.359e-5
4.504e+0	2.359e-5
4.505e+0	2.356e-5
4.506e+0	2.359e-5
4.507e+0	2.359e-5
4.508e+0	2.359e-5
4.509e+0	2.359e-5
4.510e+0	2.356e-5
4.511e+0	2.356e-5
4.512e+0	2.359e-5
4.513e+0	2.359e-5
4.514e+0	2.353e-5
4.515e+0	2.359e-5
4.516e+0	2.353e-5
4.517e+0	2.356e-5
4.518e+0	2.353e-5
4.519e+0	2.353e-5
4.520e+0	2.350e-5
4.521e+0	2.359e-5
4.522e+0	2.353e-5
4.523e+0	2.353e-5
4.524e+0	2.353e-5
4.525e+0	2.359e-5
4.526e+0	2.353e-5
4.527e+0	2.353e-5
4.528e+0	2.350e-5
4.529e+0	2.359e-5
4.530e+0	2.356e-5
4.531e+0	2.356e-5
4.532e+0	2.356e-5
4.533e+0	2.350e-5
4.534e+0	2.356e-5
4.535e+0	2.359e-5
4.536e+0	2.356e-5
4.537e+0	2.356e-5
4.538e+0	2.353e-5
4.539e+0	2.353e-5
4.540e+0	2.353e-5
4.541e+0	2.359e-5
4.542e+0	2.347e-5
4.543e+0	2.353e-5
4.544e+0	2.347e-5
4.545e+0	2.359e-5
4.546e+0	2.350e-5
4.547e+0	2.350e-5
4.548e+0	2.340e-5
4.549e+0	2.347e-5
4.550e+0	2.344e-5
4.551e+0	2.356e-5
4.552e+0	2.353e-5
4.553e+0	2.353e-5
4.554e+0	2.344e-5
4.555e+0	2.344e-5
4.556e+0	2.350e-5
4.557e+0	2.347e-5
4.558e+0	2.356e-5
4.559e+0	2.344e-5
4.560e+0	2.350e-5
4.561e+0	2.334e-5
4.562e+0	2.340e-5
4.563e+0	2.344e-5
4.564e+0	2.344e-5
4.565e+0	2.344e-5
4.566e+0	2.340e-5
4.567e+0	2.344e-5
4.568e+0	2.340e-5
4.569e+0	2.344e-5
4.570e+0	2.353e-5
4.571e+0	2.347e-5
4.572e+0	2.331e-5
4.573e+0	2.328e-5
4.574e+0	2.347e-5
4.575e+0	2.340e-5
4.576e+0	2.340e-5
4.577e+0	2.344e-5
4.578e+0	2.347e-5
4.579e+0	2.334e-5
4.580e+0	2.334e-5
4.581e+0	2.331e-5
4.582e+0	2.328e-5
4.583e+0	2.331e-5
4.584e+0	2.328e-5
4.585e+0	2.331e-5
4.586e+0	2.344e-5
4.587e+0	2.340e-5
4.588e+0	2.337e-5
4.589e+0	2.337e-5
4.590e+0	2.331e-5
4.591e+0	2.328e-5
4.592e+0	2.328e-5
4.593e+0	2.334e-5
4.594e+0	2.337e-5
4.595e+0	2.325e-5
4.596e+0	2.328e-5
4.597e+0	2.331e-5
4.598e+0	2.328e-5
4.599e+0	2.334e-5
4.600e+0	2.325e-5
4.601e+0	2.328e-5
4.602e+0	2.331e-5
4.603e+0	2.334e-5
4.604e+0	2.331e-5
4.605e+0	2.322e-5
4.606e+0	2.331e-5
4.607e+0	2.325e-5
4.608e+0	2.331e-5
4.609e+0	2.331e-5
4.610e+0	2.322e-5
4.611e+0	2.319e-5
4.612e+0	2.313e-5
4.613e+0	2.319e-5
4.614e+0	2.322e-5
4.615e+0	2.316e-5
4.616e+0	2.328e-5
4.617e+0	2.325e-5
4.618e+0	2.325e-5
4.619e+0	2.322e-5
4.620e+0	2.322e-5
4.621e+0	2.322e-5
4.622e+0	2.316e-5
4.623e+0	2.313e-5
4.624e+0	2.322e-5
4.625e+0	2.316e-5
4.626e+0	2.316e-5
4.627e+0	2.316e-5
4.628e+0	2.316e-5
4.629e+0	2.316e-5
4.630e+0	2.325e-5
4.631e+0	2.310e-5
4.632e+0	2.313e-5
4.633e+0	2.310e-5
4.634e+0	2.322e-5
4.635e+0	2.310e-5
4.636e+0	2.316e-5
4.637e+0	2.310e-5
4.638e+0	2.310e-5
4.639e+0	2.313e-5
4.640e+0	2.313e-5
4.641e+0	2.316e-5
4.642e+0	2.313e-5
4.643e+0	2.313e-5
4.644e+0	2.313e-5
4.645e+0	2.310e-5
4.646e+0	2.316e-5
4.647e+0	2.310e-5
4.648e+0	2.322e-5
4.649e+0	2.310e-5
4.650e+0	2.310e-5
4.651e+0	2.316e-5
4.652e+0	2.310e-5
4.653e+0	2.313e-5
4.654e+0	2.316e-5
4.655e+0	2.316e-5
4.656e+0	2.313e-5
4.657e+0	2.313e-5
4.658e+0	2.313e-5
4.659e+0	2.310e-5
4.660e+0	2.316e-5
4.661e+0	2.310e-5
4.662e+0	2.310e-5
4.663e+0	2.310e-5
4.664e+0	2.310e-5
4.665e+0	2.319e-5
4.666e+0	2.310e-5
4.667e+0	2.310e-5
4.668e+0	2.310e-5
4.669e+0	2.310e-5
4.670e+0	2.310e-5
4.671e+0	2.310e-5
4.672e+0	2.310e-5
4.673e+0	2.310e-5
4.674e+0	2.310e-5
4.675e+0	2.310e-5
4.676e+0	2.310e-5
4.677e+0	2.310e-5
4.678e+0	2.310e-5
4.679e+0	2.310e-5
4.680e+0	2.310e-5
4.681e+0	2.310e-5
4.682e+0	2.310e-5
4.683e+0	2.310e-5
4.684e+0	2.310e-5
4.685e+0	2.310e-5
4.686e+0	2.310e-5
4.687e+0	2.310e-5
4.688e+0	2.310e-5
4.689e+0	2.310e-5
4.690e+0	2.310e-5
4.691e+0	2.313e-5
4.692e+0	2.310e-5
4.693e+0	2.310e-5
4.694e+0	2.310e-5
4.695e+0	2.310e-5
4.696e+0	2.310e-5
4.697e+0	2.310e-5
4.698e+0	2.310e-5
4.699e+0	2.310e-5
4.700e+0	2.310e-5
4.701e+0	2.307e-5
4.702e+0	2.310e-5
4.703e+0	2.310e-5
4.704e+0	2.310e-5
4.705e+0	2.310e-5
4.706e+0	2.310e-5
4.707e+0	2.310e-5
4.708e+0	2.310e-5
4.709e+0	2.310e-5
4.710e+0	2.307e-5
4.711e+0	2.310e-5
4.712e+0	2.310e-5
4.713e+0	2.310e-5
4.714e+0	2.310e-5
4.715e+0	2.310e-5
4.716e+0	2.307e-5
4.717e+0	2.310e-5
4.718e+0	2.310e-5
4.719e+0	2.310e-5
4.720e+0	2.310e-5
4.721e+0	2.307e-5
4.722e+0	2.310e-5
4.723e+0	2.307e-5
4.724e+0	2.310e-5
4.725e+0	2.310e-5
4.726e+0	2.304e-5
4.727e+0	2.310e-5
4.728e+0	2.307e-5
4.729e+0	2.307e-5
4.730e+0	2.310e-5
4.731e+0	2.310e-5
4.732e+0	2.307e-5
4.733e+0	2.304e-5
4.734e+0	2.310e-5
4.735e+0	2.310e-5
4.736e+0	2.310e-5
4.737e+0	2.304e-5
4.738e+0	2.307e-5
4.739e+0	2.307e-5
4.740e+0	2.310e-5
4.741e+0	2.310e-5
4.742e+0	2.307e-5
4.743e+0	2.307e-5
4.744e+0	2.304e-5
4.745e+0	2.310e-5
4.746e+0	2.310e-5
4.747e+0	2.310e-5
4.748e+0	2.307e-5
4.749e+0	2.304e-5
4.750e+0	2.307e-5
4.751e+0	2.310e-5
4.752e+0	2.307e-5
4.753e+0	2.310e-5
4.754e+0	2.304e-5
4.755e+0	2.304e-5
4.756e+0	2.310e-5
4.757e+0	2.310e-5
4.758e+0	2.307e-5
4.759e+0	2.307e-5
4.760e+0	2.307e-5
4.761e+0	2.307e-5
4.762e+0	2.298e-5
4.763e+0	2.310e-5
4.764e+0	2.307e-5
4.765e+0	2.304e-5
4.766e+0	2.298e-5
4.767e+0	2.301e-5
4.768e+0	2.304e-5
4.769e+0	2.304e-5
4.770e+0	2.304e-5
4.771e+0	2.298e-5
4.772e+0	2.301e-5
4.773e+0	2.304e-5
4.774e+0	2.307e-5
4.775e+0	2.304e-5
4.776e+0	2.304e-5
4.777e+0	2.298e-5
4.778e+0	2.298e-5
4.779e+0	2.295e-5
4.780e+0	2.304e-5
4.781e+0	2.295e-5
4.782e+0	2.292e-5
4.783e+0	2.295e-5
4.784e+0	2.298e-5
4.785e+0	2.304e-5
4.786e+0	2.298e-5
4.787e+0	2.304e-5
4.788e+0	2.295e-5
4.789e+0	2.295e-5
4.790e+0	2.307e-5
4.791e+0	2.292e-5
4.792e+0	2.304e-5
4.793e+0	2.295e-5
4.794e+0	2.292e-5
4.795e+0	2.301e-5
4.796e+0	2.298e-5
4.797e+0	2.289e-5
4.798e+0	2.285e-5
4.799e+0	2.289e-5
4.800e+0	2.289e-5
4.801e+0	2.301e-5
4.802e+0	2.298e-5
4.803e+0	2.301e-5
4.804e+0	2.285e-5
4.805e+0	2.279e-5
4.806e+0	2.285e-5
4.807e+0	2.276e-5
4.808e+0	2.295e-5
4.809e+0	2.301e-5
4.810e+0	2.292e-5
4.811e+0	2.282e-5
4.812e+0	2.285e-5
4.813e+0	2.285e-5
4.814e+0	2.292e-5
4.815e+0	2.289e-5
4.816e+0	2.282e-5
4.817e+0	2.285e-5
4.818e+0	2.279e-5
4.819e+0	2.270e-5
4.820e+0	2.285e-5
4.821e+0	2.285e-5
4.822e+0	2.276e-5
4.823e+0	2.270e-5
4.824e+0	2.279e-5
4.825e+0	2.282e-5
4.826e+0	2.276e-5
4.827e+0	2.270e-5
4.828e+0	2.273e-5
4.829e+0	2.276e-5
4.830e+0	2.279e-5
4.831e+0	2.279e-5
4.832e+0	2.285e-5
4.833e+0	2.273e-5
4.834e+0	2.282e-5
4.835e+0	2.273e-5
4.836e+0	2.273e-5
4.837e+0	2.279e-5
4.838e+0	2.279e-5
4.839e+0	2.279e-5
4.840e+0	2.267e-5
4.841e+0	2.276e-5
4.842e+0	2.267e-5
4.843e+0	2.270e-5
4.844e+0	2.273e-5
4.845e+0	2.276e-5
4.846e+0	2.273e-5
4.847e+0	2.270e-5
4.848e+0	2.273e-5
4.849e+0	2.273e-5
4.850e+0	2.264e-5
4.851e+0	2.276e-5
4.852e+0	2.270e-5
4.853e+0	2.273e-5
4.854e+0	2.270e-5
4.855e+0	2.270e-5
4.856e+0	2.267e-5
4.857e+0	2.282e-5
4.858e+0	2.264e-5
4.859e+0	2.270e-5
4.860e+0	2.264e-5
4.861e+0	2.270e-5
4.862e+0	2.264e-5
4.863e+0	2.270e-5
4.864e+0	2.264e-5
4.865e+0	2.264e-5
4.866e+0	2.261e-5
4.867e+0	2.261e-5
4.868e+0	2.267e-5
4.869e+0	2.264e-5
4.870e+0	2.264e-5
4.871e+0	2.261e-5
4.872e+0	2.267e-5
4.873e+0	2.264e-5
4.874e+0	2.264e-5
4.875e+0	2.270e-5
4.876e+0	2.261e-5
4.877e+0	2.264e-5
4.878e+0	2.261e-5
4.879e+0	2.264e-5
4.880e+0	2.261e-5
4.881e+0	2.264e-5
4.882e+0	2.264e-5
4.883e+0	2.261e-5
4.884e+0	2.261e-5
4.885e+0	2.267e-5
4.886e+0	2.258e-5
4.887e+0	2.261e-5
4.888e+0	2.261e-5
4.889e+0	2.261e-5
4.890e+0	2.258e-5
4.891e+0	2.264e-5
4.892e+0	2.261e-5
4.893e+0	2.264e-5
4.894e+0	2.261e-5
4.895e+0	2.261e-5
4.896e+0	2.261e-5
4.897e+0	2.264e-5
4.898e+0	2.261e-5
4.899e+0	2.261e-5
4.900e+0	2.258e-5
4.901e+0	2.264e-5
4.902e+0	2.258e-5
4.903e+0	2.261e-5
4.904e+0	2.261e-5
4.905e+0	2.261e-5
4.906e+0	2.261e-5
4.907e+0	2.261e-5
4.908e+0	2.264e-5
4.909e+0	2.261e-5
4.910e+0	2.261e-5
4.911e+0	2.261e-5
4.912e+0	2.258e-5
4.913e+0	2.261e-5
4.914e+0	2.258e-5
4.915e+0	2.258e-5
4.916e+0	2.261e-5
4.917e+0	2.261e-5
4.918e+0	2.261e-5
4.919e+0	2.264e-5
4.920e+0	2.261e-5
4.921e+0	2.264e-5
4.922e+0	2.255e-5
4.923e+0	2.261e-5
4.924e+0	2.258e-5
4.925e+0	2.261e-5
4.926e+0	2.261e-5
4.927e+0	2.261e-5
4.928e+0	2.258e-5
4.929e+0	2.261e-5
4.930e+0	2.261e-5
4.931e+0	2.261e-5
4.932e+0	2.261e-5
4.933e+0	2.261e-5
4.934e+0	2.258e-5
4.935e+0	2.261e-5
4.936e+0	2.258e-5
4.937e+0	2.261e-5
4.938e+0	2.258e-5
4.939e+0	2.261e-5
4.940e+0	2.258e-5
4.941e+0	2.261e-5
4.942e+0	2.258e-5
4.943e+0	2.261e-5
4.944e+0	2.258e-5
4.945e+0	2.261e-5
4.946e+0	2.261e-5
4.947e+0	2.261e-5
4.948e+0	2.258e-5
4.949e+0	2.258e-5
4.950e+0	2.255e-5
4.951e+0	2.258e-5
4.952e+0	2.258e-5
4.953e+0	2.258e-5
4.954e+0	2.261e-5
4.955e+0	2.261e-5
4.956e+0	2.261e-5
4.957e+0	2.261e-5
4.958e+0	2.261e-5
4.959e+0	2.261e-5
4.960e+0	2.258e-5
4.961e+0	2.261e-5
4.962e+0	2.258e-5
4.963e+0	2.261e-5
4.964e+0	2.249e-5
4.965e+0	2.261e-5
4.966e+0	2.258e-5
4.967e+0	2.255e-5
4.968e+0	2.261e-5
4.969e+0	2.261e-5
4.970e+0	2.255e-5
4.971e+0	2.258e-5
4.972e+0	2.255e-5
4.973e+0	2.261e-5
4.974e+0	2.252e-5
4.975e+0	2.255e-5
4.976e+0	2.255e-5
4.977e+0	2.255e-5
4.978e+0	2.255e-5
4.979e+0	2.261e-5
4.980e+0	2.264e-5
4.981e+0	2.255e-5
4.982e+0	2.261e-5
4.983e+0	2.252e-5
4.984e+0	2.252e-5
4.985e+0	2.261e-5
4.986e+0	2.258e-5
4.987e+0	2.252e-5
4.988e+0	2.255e-5
4.989e+0	2.249e-5
4.990e+0	2.249e-5
4.991e+0	2.255e-5
4.992e+0	2.258e-5
4.993e+0	2.249e-5
4.994e+0	2.243e-5
4.995e+0	2.255e-5
4.996e+0	2.258e-5
4.997e+0	2.255e-5
4.998e+0	2.252e-5
4.999e+0	2.258e-5
5.000e+0	2.252e-5
