June 5, 2018   16:07:14
Chronoamperometry
File: ca 20mm shake
Data Source:  Experiment
Instrument Model:  CHI614B
Header: 
Note: 

Init E (V) = 0.5
High E (V) = 0.5
Low E (V) = -0.1
Init P/N = N
Step = 1
Pulse Width (sec) = 5.
Sample Interval (s) = 1e-3
Quiet Time (sec) = 20
Sensitivity (A/V) = 1e-4

Forward:
Slp = -7.087e-5
Int = 1.534e-4
Cor = -0.66417

Time/sec, Current/A

Step 1:
1.000e-3	9.999e-4
2.000e-3	9.999e-4
3.000e-3	9.999e-4
4.000e-3	9.999e-4
5.000e-3	9.999e-4
6.000e-3	9.999e-4
7.000e-3	9.760e-4
8.000e-3	9.353e-4
9.000e-3	8.994e-4
1.000e-2	8.673e-4
1.100e-2	8.384e-4
1.200e-2	8.123e-4
1.300e-2	7.884e-4
1.400e-2	7.666e-4
1.500e-2	7.461e-4
1.600e-2	7.273e-4
1.700e-2	7.097e-4
1.800e-2	6.933e-4
1.900e-2	6.782e-4
2.000e-2	6.637e-4
2.100e-2	6.500e-4
2.200e-2	6.371e-4
2.300e-2	6.250e-4
2.400e-2	6.133e-4
2.500e-2	6.021e-4
2.600e-2	5.917e-4
2.700e-2	5.817e-4
2.800e-2	5.720e-4
2.900e-2	5.631e-4
3.000e-2	5.543e-4
3.100e-2	5.460e-4
3.200e-2	5.377e-4
3.300e-2	5.300e-4
3.400e-2	5.224e-4
3.500e-2	5.152e-4
3.600e-2	5.082e-4
3.700e-2	5.018e-4
3.800e-2	4.955e-4
3.900e-2	4.893e-4
4.000e-2	4.834e-4
4.100e-2	4.776e-4
4.200e-2	4.721e-4
4.300e-2	4.667e-4
4.400e-2	4.616e-4
4.500e-2	4.565e-4
4.600e-2	4.517e-4
4.700e-2	4.468e-4
4.800e-2	4.423e-4
4.900e-2	4.379e-4
5.000e-2	4.335e-4
5.100e-2	4.293e-4
5.200e-2	4.252e-4
5.300e-2	4.212e-4
5.400e-2	4.173e-4
5.500e-2	4.135e-4
5.600e-2	4.098e-4
5.700e-2	4.062e-4
5.800e-2	4.027e-4
5.900e-2	3.993e-4
6.000e-2	3.959e-4
6.100e-2	3.930e-4
6.200e-2	3.896e-4
6.300e-2	3.863e-4
6.400e-2	3.833e-4
6.500e-2	3.803e-4
6.600e-2	3.775e-4
6.700e-2	3.749e-4
6.800e-2	3.719e-4
6.900e-2	3.692e-4
7.000e-2	3.666e-4
7.100e-2	3.642e-4
7.200e-2	3.619e-4
7.300e-2	3.597e-4
7.400e-2	3.572e-4
7.500e-2	3.549e-4
7.600e-2	3.529e-4
7.700e-2	3.508e-4
7.800e-2	3.488e-4
7.900e-2	3.467e-4
8.000e-2	3.449e-4
8.100e-2	3.432e-4
8.200e-2	3.412e-4
8.300e-2	3.393e-4
8.400e-2	3.376e-4
8.500e-2	3.359e-4
8.600e-2	3.344e-4
8.700e-2	3.329e-4
8.800e-2	3.314e-4
8.900e-2	3.298e-4
9.000e-2	3.283e-4
9.100e-2	3.270e-4
9.200e-2	3.253e-4
9.300e-2	3.240e-4
9.400e-2	3.226e-4
9.500e-2	3.212e-4
9.600e-2	3.197e-4
9.700e-2	3.185e-4
9.800e-2	3.172e-4
9.900e-2	3.158e-4
1.000e-1	3.144e-4
1.010e-1	3.133e-4
1.020e-1	3.119e-4
1.030e-1	3.105e-4
1.040e-1	3.094e-4
1.050e-1	3.080e-4
1.060e-1	3.069e-4
1.070e-1	3.055e-4
1.080e-1	3.043e-4
1.090e-1	3.031e-4
1.100e-1	3.016e-4
1.110e-1	3.005e-4
1.120e-1	2.992e-4
1.130e-1	2.979e-4
1.140e-1	2.967e-4
1.150e-1	2.953e-4
1.160e-1	2.938e-4
1.170e-1	2.924e-4
1.180e-1	2.913e-4
1.190e-1	2.899e-4
1.200e-1	2.887e-4
1.210e-1	2.874e-4
1.220e-1	2.860e-4
1.230e-1	2.847e-4
1.240e-1	2.835e-4
1.250e-1	2.824e-4
1.260e-1	2.811e-4
1.270e-1	2.798e-4
1.280e-1	2.786e-4
1.290e-1	2.772e-4
1.300e-1	2.761e-4
1.310e-1	2.749e-4
1.320e-1	2.738e-4
1.330e-1	2.725e-4
1.340e-1	2.713e-4
1.350e-1	2.703e-4
1.360e-1	2.692e-4
1.370e-1	2.680e-4
1.380e-1	2.670e-4
1.390e-1	2.659e-4
1.400e-1	2.648e-4
1.410e-1	2.638e-4
1.420e-1	2.625e-4
1.430e-1	2.616e-4
1.440e-1	2.605e-4
1.450e-1	2.595e-4
1.460e-1	2.584e-4
1.470e-1	2.576e-4
1.480e-1	2.567e-4
1.490e-1	2.557e-4
1.500e-1	2.547e-4
1.510e-1	2.538e-4
1.520e-1	2.529e-4
1.530e-1	2.522e-4
1.540e-1	2.513e-4
1.550e-1	2.504e-4
1.560e-1	2.496e-4
1.570e-1	2.488e-4
1.580e-1	2.480e-4
1.590e-1	2.470e-4
1.600e-1	2.464e-4
1.610e-1	2.456e-4
1.620e-1	2.449e-4
1.630e-1	2.443e-4
1.640e-1	2.435e-4
1.650e-1	2.430e-4
1.660e-1	2.423e-4
1.670e-1	2.415e-4
1.680e-1	2.410e-4
1.690e-1	2.405e-4
1.700e-1	2.400e-4
1.710e-1	2.393e-4
1.720e-1	2.387e-4
1.730e-1	2.381e-4
1.740e-1	2.376e-4
1.750e-1	2.371e-4
1.760e-1	2.365e-4
1.770e-1	2.361e-4
1.780e-1	2.355e-4
1.790e-1	2.349e-4
1.800e-1	2.342e-4
1.810e-1	2.338e-4
1.820e-1	2.332e-4
1.830e-1	2.327e-4
1.840e-1	2.319e-4
1.850e-1	2.313e-4
1.860e-1	2.308e-4
1.870e-1	2.303e-4
1.880e-1	2.298e-4
1.890e-1	2.293e-4
1.900e-1	2.288e-4
1.910e-1	2.282e-4
1.920e-1	2.276e-4
1.930e-1	2.270e-4
1.940e-1	2.264e-4
1.950e-1	2.259e-4
1.960e-1	2.254e-4
1.970e-1	2.249e-4
1.980e-1	2.242e-4
1.990e-1	2.235e-4
2.000e-1	2.229e-4
2.010e-1	2.224e-4
2.020e-1	2.219e-4
2.030e-1	2.212e-4
2.040e-1	2.205e-4
2.050e-1	2.200e-4
2.060e-1	2.195e-4
2.070e-1	2.189e-4
2.080e-1	2.182e-4
2.090e-1	2.176e-4
2.100e-1	2.171e-4
2.110e-1	2.164e-4
2.120e-1	2.157e-4
2.130e-1	2.151e-4
2.140e-1	2.146e-4
2.150e-1	2.142e-4
2.160e-1	2.135e-4
2.170e-1	2.128e-4
2.180e-1	2.122e-4
2.190e-1	2.117e-4
2.200e-1	2.112e-4
2.210e-1	2.107e-4
2.220e-1	2.100e-4
2.230e-1	2.093e-4
2.240e-1	2.088e-4
2.250e-1	2.083e-4
2.260e-1	2.078e-4
2.270e-1	2.073e-4
2.280e-1	2.068e-4
2.290e-1	2.063e-4
2.300e-1	2.057e-4
2.310e-1	2.054e-4
2.320e-1	2.048e-4
2.330e-1	2.043e-4
2.340e-1	2.039e-4
2.350e-1	2.034e-4
2.360e-1	2.029e-4
2.370e-1	2.024e-4
2.380e-1	2.020e-4
2.390e-1	2.017e-4
2.400e-1	2.014e-4
2.410e-1	2.009e-4
2.420e-1	2.005e-4
2.430e-1	2.001e-4
2.440e-1	1.998e-4
2.450e-1	1.995e-4
2.460e-1	1.992e-4
2.470e-1	1.990e-4
2.480e-1	1.989e-4
2.490e-1	1.985e-4
2.500e-1	1.984e-4
2.510e-1	1.981e-4
2.520e-1	1.980e-4
2.530e-1	1.977e-4
2.540e-1	1.975e-4
2.550e-1	1.974e-4
2.560e-1	1.971e-4
2.570e-1	1.970e-4
2.580e-1	1.967e-4
2.590e-1	1.966e-4
2.600e-1	1.963e-4
2.610e-1	1.961e-4
2.620e-1	1.958e-4
2.630e-1	1.956e-4
2.640e-1	1.954e-4
2.650e-1	1.951e-4
2.660e-1	1.948e-4
2.670e-1	1.946e-4
2.680e-1	1.942e-4
2.690e-1	1.941e-4
2.700e-1	1.937e-4
2.710e-1	1.935e-4
2.720e-1	1.931e-4
2.730e-1	1.927e-4
2.740e-1	1.926e-4
2.750e-1	1.922e-4
2.760e-1	1.918e-4
2.770e-1	1.917e-4
2.780e-1	1.912e-4
2.790e-1	1.907e-4
2.800e-1	1.905e-4
2.810e-1	1.902e-4
2.820e-1	1.898e-4
2.830e-1	1.896e-4
2.840e-1	1.892e-4
2.850e-1	1.888e-4
2.860e-1	1.885e-4
2.870e-1	1.882e-4
2.880e-1	1.878e-4
2.890e-1	1.873e-4
2.900e-1	1.872e-4
2.910e-1	1.867e-4
2.920e-1	1.863e-4
2.930e-1	1.859e-4
2.940e-1	1.857e-4
2.950e-1	1.853e-4
2.960e-1	1.848e-4
2.970e-1	1.844e-4
2.980e-1	1.841e-4
2.990e-1	1.838e-4
3.000e-1	1.833e-4
3.010e-1	1.829e-4
3.020e-1	1.827e-4
3.030e-1	1.824e-4
3.040e-1	1.819e-4
3.050e-1	1.814e-4
3.060e-1	1.810e-4
3.070e-1	1.808e-4
3.080e-1	1.804e-4
3.090e-1	1.800e-4
3.100e-1	1.796e-4
3.110e-1	1.794e-4
3.120e-1	1.790e-4
3.130e-1	1.786e-4
3.140e-1	1.784e-4
3.150e-1	1.780e-4
3.160e-1	1.778e-4
3.170e-1	1.774e-4
3.180e-1	1.770e-4
3.190e-1	1.770e-4
3.200e-1	1.765e-4
3.210e-1	1.764e-4
3.220e-1	1.760e-4
3.230e-1	1.759e-4
3.240e-1	1.757e-4
3.250e-1	1.756e-4
3.260e-1	1.754e-4
3.270e-1	1.751e-4
3.280e-1	1.750e-4
3.290e-1	1.749e-4
3.300e-1	1.746e-4
3.310e-1	1.746e-4
3.320e-1	1.745e-4
3.330e-1	1.745e-4
3.340e-1	1.743e-4
3.350e-1	1.741e-4
3.360e-1	1.741e-4
3.370e-1	1.741e-4
3.380e-1	1.740e-4
3.390e-1	1.738e-4
3.400e-1	1.736e-4
3.410e-1	1.736e-4
3.420e-1	1.736e-4
3.430e-1	1.735e-4
3.440e-1	1.735e-4
3.450e-1	1.734e-4
3.460e-1	1.731e-4
3.470e-1	1.731e-4
3.480e-1	1.731e-4
3.490e-1	1.731e-4
3.500e-1	1.729e-4
3.510e-1	1.727e-4
3.520e-1	1.726e-4
3.530e-1	1.726e-4
3.540e-1	1.723e-4
3.550e-1	1.722e-4
3.560e-1	1.721e-4
3.570e-1	1.718e-4
3.580e-1	1.716e-4
3.590e-1	1.716e-4
3.600e-1	1.712e-4
3.610e-1	1.712e-4
3.620e-1	1.708e-4
3.630e-1	1.707e-4
3.640e-1	1.705e-4
3.650e-1	1.702e-4
3.660e-1	1.700e-4
3.670e-1	1.697e-4
3.680e-1	1.692e-4
3.690e-1	1.692e-4
3.700e-1	1.687e-4
3.710e-1	1.687e-4
3.720e-1	1.682e-4
3.730e-1	1.679e-4
3.740e-1	1.677e-4
3.750e-1	1.673e-4
3.760e-1	1.671e-4
3.770e-1	1.668e-4
3.780e-1	1.663e-4
3.790e-1	1.661e-4
3.800e-1	1.657e-4
3.810e-1	1.654e-4
3.820e-1	1.652e-4
3.830e-1	1.648e-4
3.840e-1	1.643e-4
3.850e-1	1.641e-4
3.860e-1	1.638e-4
3.870e-1	1.634e-4
3.880e-1	1.632e-4
3.890e-1	1.628e-4
3.900e-1	1.625e-4
3.910e-1	1.623e-4
3.920e-1	1.619e-4
3.930e-1	1.616e-4
3.940e-1	1.614e-4
3.950e-1	1.611e-4
3.960e-1	1.609e-4
3.970e-1	1.605e-4
3.980e-1	1.604e-4
3.990e-1	1.599e-4
4.000e-1	1.599e-4
4.010e-1	1.595e-4
4.020e-1	1.594e-4
4.030e-1	1.592e-4
4.040e-1	1.590e-4
4.050e-1	1.589e-4
4.060e-1	1.587e-4
4.070e-1	1.585e-4
4.080e-1	1.584e-4
4.090e-1	1.584e-4
4.100e-1	1.582e-4
4.110e-1	1.582e-4
4.120e-1	1.580e-4
4.130e-1	1.580e-4
4.140e-1	1.579e-4
4.150e-1	1.577e-4
4.160e-1	1.575e-4
4.170e-1	1.575e-4
4.180e-1	1.574e-4
4.190e-1	1.572e-4
4.200e-1	1.570e-4
4.210e-1	1.570e-4
4.220e-1	1.568e-4
4.230e-1	1.565e-4
4.240e-1	1.565e-4
4.250e-1	1.565e-4
4.260e-1	1.560e-4
4.270e-1	1.560e-4
4.280e-1	1.559e-4
4.290e-1	1.556e-4
4.300e-1	1.555e-4
4.310e-1	1.555e-4
4.320e-1	1.551e-4
4.330e-1	1.550e-4
4.340e-1	1.549e-4
4.350e-1	1.545e-4
4.360e-1	1.545e-4
4.370e-1	1.544e-4
4.380e-1	1.542e-4
4.390e-1	1.541e-4
4.400e-1	1.539e-4
4.410e-1	1.537e-4
4.420e-1	1.536e-4
4.430e-1	1.535e-4
4.440e-1	1.535e-4
4.450e-1	1.532e-4
4.460e-1	1.530e-4
4.470e-1	1.531e-4
4.480e-1	1.530e-4
4.490e-1	1.528e-4
4.500e-1	1.527e-4
4.510e-1	1.526e-4
4.520e-1	1.525e-4
4.530e-1	1.525e-4
4.540e-1	1.522e-4
4.550e-1	1.521e-4
4.560e-1	1.521e-4
4.570e-1	1.519e-4
4.580e-1	1.517e-4
4.590e-1	1.517e-4
4.600e-1	1.516e-4
4.610e-1	1.515e-4
4.620e-1	1.513e-4
4.630e-1	1.512e-4
4.640e-1	1.511e-4
4.650e-1	1.510e-4
4.660e-1	1.508e-4
4.670e-1	1.507e-4
4.680e-1	1.506e-4
4.690e-1	1.505e-4
4.700e-1	1.502e-4
4.710e-1	1.501e-4
4.720e-1	1.501e-4
4.730e-1	1.497e-4
4.740e-1	1.497e-4
4.750e-1	1.496e-4
4.760e-1	1.493e-4
4.770e-1	1.492e-4
4.780e-1	1.490e-4
4.790e-1	1.489e-4
4.800e-1	1.487e-4
4.810e-1	1.487e-4
4.820e-1	1.486e-4
4.830e-1	1.484e-4
4.840e-1	1.482e-4
4.850e-1	1.482e-4
4.860e-1	1.481e-4
4.870e-1	1.481e-4
4.880e-1	1.479e-4
4.890e-1	1.478e-4
4.900e-1	1.477e-4
4.910e-1	1.477e-4
4.920e-1	1.476e-4
4.930e-1	1.475e-4
4.940e-1	1.472e-4
4.950e-1	1.472e-4
4.960e-1	1.472e-4
4.970e-1	1.471e-4
4.980e-1	1.471e-4
4.990e-1	1.469e-4
5.000e-1	1.468e-4
5.010e-1	1.467e-4
5.020e-1	1.467e-4
5.030e-1	1.465e-4
5.040e-1	1.464e-4
5.050e-1	1.463e-4
5.060e-1	1.462e-4
5.070e-1	1.461e-4
5.080e-1	1.460e-4
5.090e-1	1.457e-4
5.100e-1	1.458e-4
5.110e-1	1.457e-4
5.120e-1	1.457e-4
5.130e-1	1.455e-4
5.140e-1	1.453e-4
5.150e-1	1.453e-4
5.160e-1	1.452e-4
5.170e-1	1.450e-4
5.180e-1	1.449e-4
5.190e-1	1.448e-4
5.200e-1	1.448e-4
5.210e-1	1.447e-4
5.220e-1	1.447e-4
5.230e-1	1.445e-4
5.240e-1	1.443e-4
5.250e-1	1.443e-4
5.260e-1	1.443e-4
5.270e-1	1.442e-4
5.280e-1	1.442e-4
5.290e-1	1.439e-4
5.300e-1	1.439e-4
5.310e-1	1.438e-4
5.320e-1	1.438e-4
5.330e-1	1.438e-4
5.340e-1	1.438e-4
5.350e-1	1.438e-4
5.360e-1	1.437e-4
5.370e-1	1.437e-4
5.380e-1	1.436e-4
5.390e-1	1.435e-4
5.400e-1	1.434e-4
5.410e-1	1.435e-4
5.420e-1	1.433e-4
5.430e-1	1.433e-4
5.440e-1	1.433e-4
5.450e-1	1.433e-4
5.460e-1	1.433e-4
5.470e-1	1.433e-4
5.480e-1	1.432e-4
5.490e-1	1.432e-4
5.500e-1	1.431e-4
5.510e-1	1.429e-4
5.520e-1	1.428e-4
5.530e-1	1.428e-4
5.540e-1	1.428e-4
5.550e-1	1.427e-4
5.560e-1	1.425e-4
5.570e-1	1.424e-4
5.580e-1	1.423e-4
5.590e-1	1.423e-4
5.600e-1	1.423e-4
5.610e-1	1.420e-4
5.620e-1	1.419e-4
5.630e-1	1.418e-4
5.640e-1	1.417e-4
5.650e-1	1.416e-4
5.660e-1	1.414e-4
5.670e-1	1.413e-4
5.680e-1	1.412e-4
5.690e-1	1.410e-4
5.700e-1	1.409e-4
5.710e-1	1.408e-4
5.720e-1	1.408e-4
5.730e-1	1.405e-4
5.740e-1	1.404e-4
5.750e-1	1.403e-4
5.760e-1	1.404e-4
5.770e-1	1.401e-4
5.780e-1	1.399e-4
5.790e-1	1.399e-4
5.800e-1	1.397e-4
5.810e-1	1.397e-4
5.820e-1	1.395e-4
5.830e-1	1.394e-4
5.840e-1	1.394e-4
5.850e-1	1.394e-4
5.860e-1	1.393e-4
5.870e-1	1.393e-4
5.880e-1	1.393e-4
5.890e-1	1.393e-4
5.900e-1	1.391e-4
5.910e-1	1.391e-4
5.920e-1	1.390e-4
5.930e-1	1.390e-4
5.940e-1	1.389e-4
5.950e-1	1.388e-4
5.960e-1	1.388e-4
5.970e-1	1.387e-4
5.980e-1	1.384e-4
5.990e-1	1.382e-4
6.000e-1	1.380e-4
6.010e-1	1.379e-4
6.020e-1	1.379e-4
6.030e-1	1.377e-4
6.040e-1	1.374e-4
6.050e-1	1.373e-4
6.060e-1	1.370e-4
6.070e-1	1.370e-4
6.080e-1	1.368e-4
6.090e-1	1.366e-4
6.100e-1	1.365e-4
6.110e-1	1.362e-4
6.120e-1	1.360e-4
6.130e-1	1.360e-4
6.140e-1	1.355e-4
6.150e-1	1.355e-4
6.160e-1	1.354e-4
6.170e-1	1.350e-4
6.180e-1	1.350e-4
6.190e-1	1.347e-4
6.200e-1	1.345e-4
6.210e-1	1.345e-4
6.220e-1	1.342e-4
6.230e-1	1.340e-4
6.240e-1	1.340e-4
6.250e-1	1.337e-4
6.260e-1	1.335e-4
6.270e-1	1.334e-4
6.280e-1	1.333e-4
6.290e-1	1.330e-4
6.300e-1	1.330e-4
6.310e-1	1.330e-4
6.320e-1	1.328e-4
6.330e-1	1.326e-4
6.340e-1	1.326e-4
6.350e-1	1.326e-4
6.360e-1	1.325e-4
6.370e-1	1.325e-4
6.380e-1	1.323e-4
6.390e-1	1.323e-4
6.400e-1	1.321e-4
6.410e-1	1.321e-4
6.420e-1	1.321e-4
6.430e-1	1.321e-4
6.440e-1	1.320e-4
6.450e-1	1.320e-4
6.460e-1	1.320e-4
6.470e-1	1.320e-4
6.480e-1	1.320e-4
6.490e-1	1.321e-4
6.500e-1	1.321e-4
6.510e-1	1.321e-4
6.520e-1	1.320e-4
6.530e-1	1.321e-4
6.540e-1	1.321e-4
6.550e-1	1.321e-4
6.560e-1	1.321e-4
6.570e-1	1.321e-4
6.580e-1	1.323e-4
6.590e-1	1.324e-4
6.600e-1	1.326e-4
6.610e-1	1.325e-4
6.620e-1	1.326e-4
6.630e-1	1.326e-4
6.640e-1	1.326e-4
6.650e-1	1.326e-4
6.660e-1	1.327e-4
6.670e-1	1.328e-4
6.680e-1	1.327e-4
6.690e-1	1.330e-4
6.700e-1	1.330e-4
6.710e-1	1.330e-4
6.720e-1	1.330e-4
6.730e-1	1.330e-4
6.740e-1	1.330e-4
6.750e-1	1.330e-4
6.760e-1	1.330e-4
6.770e-1	1.329e-4
6.780e-1	1.328e-4
6.790e-1	1.327e-4
6.800e-1	1.327e-4
6.810e-1	1.326e-4
6.820e-1	1.326e-4
6.830e-1	1.326e-4
6.840e-1	1.325e-4
6.850e-1	1.326e-4
6.860e-1	1.325e-4
6.870e-1	1.322e-4
6.880e-1	1.321e-4
6.890e-1	1.321e-4
6.900e-1	1.320e-4
6.910e-1	1.320e-4
6.920e-1	1.317e-4
6.930e-1	1.316e-4
6.940e-1	1.315e-4
6.950e-1	1.315e-4
6.960e-1	1.313e-4
6.970e-1	1.311e-4
6.980e-1	1.311e-4
6.990e-1	1.311e-4
7.000e-1	1.308e-4
7.010e-1	1.307e-4
7.020e-1	1.306e-4
7.030e-1	1.304e-4
7.040e-1	1.302e-4
7.050e-1	1.301e-4
7.060e-1	1.300e-4
7.070e-1	1.297e-4
7.080e-1	1.296e-4
7.090e-1	1.294e-4
7.100e-1	1.292e-4
7.110e-1	1.291e-4
7.120e-1	1.290e-4
7.130e-1	1.287e-4
7.140e-1	1.286e-4
7.150e-1	1.286e-4
7.160e-1	1.283e-4
7.170e-1	1.282e-4
7.180e-1	1.281e-4
7.190e-1	1.277e-4
7.200e-1	1.277e-4
7.210e-1	1.275e-4
7.220e-1	1.273e-4
7.230e-1	1.272e-4
7.240e-1	1.270e-4
7.250e-1	1.268e-4
7.260e-1	1.267e-4
7.270e-1	1.267e-4
7.280e-1	1.266e-4
7.290e-1	1.263e-4
7.300e-1	1.262e-4
7.310e-1	1.262e-4
7.320e-1	1.260e-4
7.330e-1	1.258e-4
7.340e-1	1.257e-4
7.350e-1	1.257e-4
7.360e-1	1.257e-4
7.370e-1	1.257e-4
7.380e-1	1.255e-4
7.390e-1	1.253e-4
7.400e-1	1.253e-4
7.410e-1	1.253e-4
7.420e-1	1.252e-4
7.430e-1	1.253e-4
7.440e-1	1.253e-4
7.450e-1	1.252e-4
7.460e-1	1.253e-4
7.470e-1	1.252e-4
7.480e-1	1.253e-4
7.490e-1	1.254e-4
7.500e-1	1.256e-4
7.510e-1	1.257e-4
7.520e-1	1.257e-4
7.530e-1	1.257e-4
7.540e-1	1.258e-4
7.550e-1	1.260e-4
7.560e-1	1.262e-4
7.570e-1	1.262e-4
7.580e-1	1.262e-4
7.590e-1	1.265e-4
7.600e-1	1.266e-4
7.610e-1	1.267e-4
7.620e-1	1.267e-4
7.630e-1	1.267e-4
7.640e-1	1.267e-4
7.650e-1	1.269e-4
7.660e-1	1.267e-4
7.670e-1	1.268e-4
7.680e-1	1.269e-4
7.690e-1	1.270e-4
7.700e-1	1.269e-4
7.710e-1	1.270e-4
7.720e-1	1.270e-4
7.730e-1	1.267e-4
7.740e-1	1.269e-4
7.750e-1	1.267e-4
7.760e-1	1.267e-4
7.770e-1	1.267e-4
7.780e-1	1.267e-4
7.790e-1	1.267e-4
7.800e-1	1.265e-4
7.810e-1	1.264e-4
7.820e-1	1.262e-4
7.830e-1	1.262e-4
7.840e-1	1.262e-4
7.850e-1	1.262e-4
7.860e-1	1.260e-4
7.870e-1	1.258e-4
7.880e-1	1.257e-4
7.890e-1	1.257e-4
7.900e-1	1.255e-4
7.910e-1	1.253e-4
7.920e-1	1.252e-4
7.930e-1	1.252e-4
7.940e-1	1.251e-4
7.950e-1	1.247e-4
7.960e-1	1.247e-4
7.970e-1	1.246e-4
7.980e-1	1.244e-4
7.990e-1	1.242e-4
8.000e-1	1.241e-4
8.010e-1	1.238e-4
8.020e-1	1.237e-4
8.030e-1	1.236e-4
8.040e-1	1.233e-4
8.050e-1	1.233e-4
8.060e-1	1.229e-4
8.070e-1	1.228e-4
8.080e-1	1.227e-4
8.090e-1	1.223e-4
8.100e-1	1.220e-4
8.110e-1	1.218e-4
8.120e-1	1.217e-4
8.130e-1	1.214e-4
8.140e-1	1.213e-4
8.150e-1	1.210e-4
8.160e-1	1.208e-4
8.170e-1	1.208e-4
8.180e-1	1.205e-4
8.190e-1	1.203e-4
8.200e-1	1.203e-4
8.210e-1	1.201e-4
8.220e-1	1.199e-4
8.230e-1	1.198e-4
8.240e-1	1.196e-4
8.250e-1	1.195e-4
8.260e-1	1.193e-4
8.270e-1	1.194e-4
8.280e-1	1.193e-4
8.290e-1	1.192e-4
8.300e-1	1.188e-4
8.310e-1	1.189e-4
8.320e-1	1.188e-4
8.330e-1	1.189e-4
8.340e-1	1.188e-4
8.350e-1	1.188e-4
8.360e-1	1.188e-4
8.370e-1	1.188e-4
8.380e-1	1.188e-4
8.390e-1	1.188e-4
8.400e-1	1.188e-4
8.410e-1	1.188e-4
8.420e-1	1.188e-4
8.430e-1	1.189e-4
8.440e-1	1.188e-4
8.450e-1	1.189e-4
8.460e-1	1.190e-4
8.470e-1	1.191e-4
8.480e-1	1.193e-4
8.490e-1	1.194e-4
8.500e-1	1.193e-4
8.510e-1	1.194e-4
8.520e-1	1.194e-4
8.530e-1	1.194e-4
8.540e-1	1.195e-4
8.550e-1	1.195e-4
8.560e-1	1.197e-4
8.570e-1	1.197e-4
8.580e-1	1.197e-4
8.590e-1	1.197e-4
8.600e-1	1.197e-4
8.610e-1	1.197e-4
8.620e-1	1.197e-4
8.630e-1	1.197e-4
8.640e-1	1.196e-4
8.650e-1	1.196e-4
8.660e-1	1.195e-4
8.670e-1	1.194e-4
8.680e-1	1.194e-4
8.690e-1	1.194e-4
8.700e-1	1.192e-4
8.710e-1	1.190e-4
8.720e-1	1.189e-4
8.730e-1	1.189e-4
8.740e-1	1.187e-4
8.750e-1	1.186e-4
8.760e-1	1.184e-4
8.770e-1	1.184e-4
8.780e-1	1.183e-4
8.790e-1	1.180e-4
8.800e-1	1.179e-4
8.810e-1	1.179e-4
8.820e-1	1.175e-4
8.830e-1	1.174e-4
8.840e-1	1.174e-4
8.850e-1	1.173e-4
8.860e-1	1.169e-4
8.870e-1	1.169e-4
8.880e-1	1.168e-4
8.890e-1	1.165e-4
8.900e-1	1.164e-4
8.910e-1	1.164e-4
8.920e-1	1.161e-4
8.930e-1	1.159e-4
8.940e-1	1.159e-4
8.950e-1	1.156e-4
8.960e-1	1.155e-4
8.970e-1	1.155e-4
8.980e-1	1.151e-4
8.990e-1	1.150e-4
9.000e-1	1.150e-4
9.010e-1	1.148e-4
9.020e-1	1.145e-4
9.030e-1	1.145e-4
9.040e-1	1.144e-4
9.050e-1	1.140e-4
9.060e-1	1.140e-4
9.070e-1	1.139e-4
9.080e-1	1.137e-4
9.090e-1	1.136e-4
9.100e-1	1.135e-4
9.110e-1	1.135e-4
9.120e-1	1.133e-4
9.130e-1	1.131e-4
9.140e-1	1.130e-4
9.150e-1	1.130e-4
9.160e-1	1.130e-4
9.170e-1	1.129e-4
9.180e-1	1.129e-4
9.190e-1	1.128e-4
9.200e-1	1.128e-4
9.210e-1	1.127e-4
9.220e-1	1.127e-4
9.230e-1	1.127e-4
9.240e-1	1.128e-4
9.250e-1	1.128e-4
9.260e-1	1.130e-4
9.270e-1	1.130e-4
9.280e-1	1.130e-4
9.290e-1	1.130e-4
9.300e-1	1.131e-4
9.310e-1	1.133e-4
9.320e-1	1.135e-4
9.330e-1	1.135e-4
9.340e-1	1.135e-4
9.350e-1	1.136e-4
9.360e-1	1.138e-4
9.370e-1	1.139e-4
9.380e-1	1.140e-4
9.390e-1	1.140e-4
9.400e-1	1.140e-4
9.410e-1	1.140e-4
9.420e-1	1.140e-4
9.430e-1	1.140e-4
9.440e-1	1.141e-4
9.450e-1	1.140e-4
9.460e-1	1.140e-4
9.470e-1	1.140e-4
9.480e-1	1.140e-4
9.490e-1	1.140e-4
9.500e-1	1.140e-4
9.510e-1	1.140e-4
9.520e-1	1.139e-4
9.530e-1	1.139e-4
9.540e-1	1.139e-4
9.550e-1	1.135e-4
9.560e-1	1.136e-4
9.570e-1	1.135e-4
9.580e-1	1.135e-4
9.590e-1	1.135e-4
9.600e-1	1.134e-4
9.610e-1	1.133e-4
9.620e-1	1.131e-4
9.630e-1	1.131e-4
9.640e-1	1.130e-4
9.650e-1	1.130e-4
9.660e-1	1.130e-4
9.670e-1	1.129e-4
9.680e-1	1.127e-4
9.690e-1	1.125e-4
9.700e-1	1.125e-4
9.710e-1	1.125e-4
9.720e-1	1.125e-4
9.730e-1	1.123e-4
9.740e-1	1.121e-4
9.750e-1	1.120e-4
9.760e-1	1.121e-4
9.770e-1	1.120e-4
9.780e-1	1.118e-4
9.790e-1	1.116e-4
9.800e-1	1.115e-4
9.810e-1	1.115e-4
9.820e-1	1.114e-4
9.830e-1	1.111e-4
9.840e-1	1.111e-4
9.850e-1	1.110e-4
9.860e-1	1.109e-4
9.870e-1	1.107e-4
9.880e-1	1.106e-4
9.890e-1	1.106e-4
9.900e-1	1.103e-4
9.910e-1	1.101e-4
9.920e-1	1.100e-4
9.930e-1	1.100e-4
9.940e-1	1.099e-4
9.950e-1	1.097e-4
9.960e-1	1.096e-4
9.970e-1	1.096e-4
9.980e-1	1.096e-4
9.990e-1	1.095e-4
1.000e+0	1.093e-4
1.001e+0	1.092e-4
1.002e+0	1.092e-4
1.003e+0	1.091e-4
1.004e+0	1.091e-4
1.005e+0	1.091e-4
1.006e+0	1.091e-4
1.007e+0	1.090e-4
1.008e+0	1.089e-4
1.009e+0	1.089e-4
1.010e+0	1.089e-4
1.011e+0	1.089e-4
1.012e+0	1.089e-4
1.013e+0	1.088e-4
1.014e+0	1.090e-4
1.015e+0	1.091e-4
1.016e+0	1.090e-4
1.017e+0	1.090e-4
1.018e+0	1.091e-4
1.019e+0	1.091e-4
1.020e+0	1.091e-4
1.021e+0	1.091e-4
1.022e+0	1.092e-4
1.023e+0	1.093e-4
1.024e+0	1.094e-4
1.025e+0	1.095e-4
1.026e+0	1.095e-4
1.027e+0	1.096e-4
1.028e+0	1.096e-4
1.029e+0	1.096e-4
1.030e+0	1.096e-4
1.031e+0	1.096e-4
1.032e+0	1.097e-4
1.033e+0	1.096e-4
1.034e+0	1.098e-4
1.035e+0	1.096e-4
1.036e+0	1.098e-4
1.037e+0	1.097e-4
1.038e+0	1.097e-4
1.039e+0	1.096e-4
1.040e+0	1.096e-4
1.041e+0	1.096e-4
1.042e+0	1.096e-4
1.043e+0	1.096e-4
1.044e+0	1.096e-4
1.045e+0	1.096e-4
1.046e+0	1.094e-4
1.047e+0	1.094e-4
1.048e+0	1.093e-4
1.049e+0	1.092e-4
1.050e+0	1.091e-4
1.051e+0	1.091e-4
1.052e+0	1.091e-4
1.053e+0	1.090e-4
1.054e+0	1.089e-4
1.055e+0	1.086e-4
1.056e+0	1.087e-4
1.057e+0	1.086e-4
1.058e+0	1.086e-4
1.059e+0	1.086e-4
1.060e+0	1.085e-4
1.061e+0	1.083e-4
1.062e+0	1.082e-4
1.063e+0	1.081e-4
1.064e+0	1.081e-4
1.065e+0	1.081e-4
1.066e+0	1.081e-4
1.067e+0	1.078e-4
1.068e+0	1.076e-4
1.069e+0	1.076e-4
1.070e+0	1.076e-4
1.071e+0	1.076e-4
1.072e+0	1.075e-4
1.073e+0	1.073e-4
1.074e+0	1.072e-4
1.075e+0	1.071e-4
1.076e+0	1.070e-4
1.077e+0	1.070e-4
1.078e+0	1.069e-4
1.079e+0	1.068e-4
1.080e+0	1.068e-4
1.081e+0	1.067e-4
1.082e+0	1.068e-4
1.083e+0	1.068e-4
1.084e+0	1.068e-4
1.085e+0	1.067e-4
1.086e+0	1.069e-4
1.087e+0	1.069e-4
1.088e+0	1.070e-4
1.089e+0	1.070e-4
1.090e+0	1.071e-4
1.091e+0	1.073e-4
1.092e+0	1.075e-4
1.093e+0	1.076e-4
1.094e+0	1.076e-4
1.095e+0	1.077e-4
1.096e+0	1.080e-4
1.097e+0	1.081e-4
1.098e+0	1.081e-4
1.099e+0	1.084e-4
1.100e+0	1.086e-4
1.101e+0	1.086e-4
1.102e+0	1.088e-4
1.103e+0	1.091e-4
1.104e+0	1.091e-4
1.105e+0	1.091e-4
1.106e+0	1.092e-4
1.107e+0	1.093e-4
1.108e+0	1.095e-4
1.109e+0	1.096e-4
1.110e+0	1.096e-4
1.111e+0	1.096e-4
1.112e+0	1.096e-4
1.113e+0	1.096e-4
1.114e+0	1.096e-4
1.115e+0	1.096e-4
1.116e+0	1.096e-4
1.117e+0	1.096e-4
1.118e+0	1.095e-4
1.119e+0	1.095e-4
1.120e+0	1.093e-4
1.121e+0	1.092e-4
1.122e+0	1.092e-4
1.123e+0	1.091e-4
1.124e+0	1.091e-4
1.125e+0	1.090e-4
1.126e+0	1.088e-4
1.127e+0	1.086e-4
1.128e+0	1.086e-4
1.129e+0	1.086e-4
1.130e+0	1.085e-4
1.131e+0	1.083e-4
1.132e+0	1.082e-4
1.133e+0	1.081e-4
1.134e+0	1.081e-4
1.135e+0	1.080e-4
1.136e+0	1.080e-4
1.137e+0	1.078e-4
1.138e+0	1.077e-4
1.139e+0	1.076e-4
1.140e+0	1.076e-4
1.141e+0	1.076e-4
1.142e+0	1.075e-4
1.143e+0	1.074e-4
1.144e+0	1.072e-4
1.145e+0	1.071e-4
1.146e+0	1.069e-4
1.147e+0	1.068e-4
1.148e+0	1.067e-4
1.149e+0	1.067e-4
1.150e+0	1.066e-4
1.151e+0	1.065e-4
1.152e+0	1.062e-4
1.153e+0	1.062e-4
1.154e+0	1.062e-4
1.155e+0	1.059e-4
1.156e+0	1.057e-4
1.157e+0	1.057e-4
1.158e+0	1.057e-4
1.159e+0	1.056e-4
1.160e+0	1.055e-4
1.161e+0	1.052e-4
1.162e+0	1.052e-4
1.163e+0	1.052e-4
1.164e+0	1.051e-4
1.165e+0	1.050e-4
1.166e+0	1.048e-4
1.167e+0	1.047e-4
1.168e+0	1.047e-4
1.169e+0	1.047e-4
1.170e+0	1.046e-4
1.171e+0	1.046e-4
1.172e+0	1.045e-4
1.173e+0	1.043e-4
1.174e+0	1.042e-4
1.175e+0	1.043e-4
1.176e+0	1.042e-4
1.177e+0	1.042e-4
1.178e+0	1.042e-4
1.179e+0	1.042e-4
1.180e+0	1.042e-4
1.181e+0	1.042e-4
1.182e+0	1.042e-4
1.183e+0	1.042e-4
1.184e+0	1.042e-4
1.185e+0	1.042e-4
1.186e+0	1.042e-4
1.187e+0	1.042e-4
1.188e+0	1.042e-4
1.189e+0	1.042e-4
1.190e+0	1.042e-4
1.191e+0	1.042e-4
1.192e+0	1.042e-4
1.193e+0	1.042e-4
1.194e+0	1.042e-4
1.195e+0	1.042e-4
1.196e+0	1.042e-4
1.197e+0	1.042e-4
1.198e+0	1.042e-4
1.199e+0	1.042e-4
1.200e+0	1.042e-4
1.201e+0	1.041e-4
1.202e+0	1.039e-4
1.203e+0	1.037e-4
1.204e+0	1.037e-4
1.205e+0	1.037e-4
1.206e+0	1.037e-4
1.207e+0	1.037e-4
1.208e+0	1.037e-4
1.209e+0	1.035e-4
1.210e+0	1.036e-4
1.211e+0	1.034e-4
1.212e+0	1.033e-4
1.213e+0	1.032e-4
1.214e+0	1.032e-4
1.215e+0	1.032e-4
1.216e+0	1.032e-4
1.217e+0	1.032e-4
1.218e+0	1.031e-4
1.219e+0	1.031e-4
1.220e+0	1.030e-4
1.221e+0	1.030e-4
1.222e+0	1.030e-4
1.223e+0	1.029e-4
1.224e+0	1.029e-4
1.225e+0	1.029e-4
1.226e+0	1.028e-4
1.227e+0	1.028e-4
1.228e+0	1.028e-4
1.229e+0	1.027e-4
1.230e+0	1.028e-4
1.231e+0	1.027e-4
1.232e+0	1.027e-4
1.233e+0	1.027e-4
1.234e+0	1.027e-4
1.235e+0	1.026e-4
1.236e+0	1.026e-4
1.237e+0	1.024e-4
1.238e+0	1.024e-4
1.239e+0	1.023e-4
1.240e+0	1.023e-4
1.241e+0	1.023e-4
1.242e+0	1.023e-4
1.243e+0	1.023e-4
1.244e+0	1.022e-4
1.245e+0	1.023e-4
1.246e+0	1.022e-4
1.247e+0	1.022e-4
1.248e+0	1.022e-4
1.249e+0	1.021e-4
1.250e+0	1.022e-4
1.251e+0	1.020e-4
1.252e+0	1.022e-4
1.253e+0	1.022e-4
1.254e+0	1.022e-4
1.255e+0	1.023e-4
1.256e+0	1.022e-4
1.257e+0	1.023e-4
1.258e+0	1.022e-4
1.259e+0	1.023e-4
1.260e+0	1.023e-4
1.261e+0	1.024e-4
1.262e+0	1.025e-4
1.263e+0	1.027e-4
1.264e+0	1.027e-4
1.265e+0	1.028e-4
1.266e+0	1.029e-4
1.267e+0	1.031e-4
1.268e+0	1.032e-4
1.269e+0	1.032e-4
1.270e+0	1.032e-4
1.271e+0	1.034e-4
1.272e+0	1.034e-4
1.273e+0	1.033e-4
1.274e+0	1.034e-4
1.275e+0	1.035e-4
1.276e+0	1.035e-4
1.277e+0	1.034e-4
1.278e+0	1.034e-4
1.279e+0	1.034e-4
1.280e+0	1.032e-4
1.281e+0	1.033e-4
1.282e+0	1.032e-4
1.283e+0	1.032e-4
1.284e+0	1.032e-4
1.285e+0	1.031e-4
1.286e+0	1.031e-4
1.287e+0	1.030e-4
1.288e+0	1.029e-4
1.289e+0	1.029e-4
1.290e+0	1.027e-4
1.291e+0	1.027e-4
1.292e+0	1.026e-4
1.293e+0	1.024e-4
1.294e+0	1.023e-4
1.295e+0	1.023e-4
1.296e+0	1.022e-4
1.297e+0	1.020e-4
1.298e+0	1.019e-4
1.299e+0	1.018e-4
1.300e+0	1.017e-4
1.301e+0	1.018e-4
1.302e+0	1.015e-4
1.303e+0	1.014e-4
1.304e+0	1.012e-4
1.305e+0	1.012e-4
1.306e+0	1.012e-4
1.307e+0	1.011e-4
1.308e+0	1.009e-4
1.309e+0	1.009e-4
1.310e+0	1.008e-4
1.311e+0	1.008e-4
1.312e+0	1.007e-4
1.313e+0	1.006e-4
1.314e+0	1.005e-4
1.315e+0	1.004e-4
1.316e+0	1.003e-4
1.317e+0	1.003e-4
1.318e+0	1.003e-4
1.319e+0	1.003e-4
1.320e+0	1.002e-4
1.321e+0	1.001e-4
1.322e+0	9.994e-5
1.323e+0	9.981e-5
1.324e+0	9.978e-5
1.325e+0	9.981e-5
1.326e+0	9.978e-5
1.327e+0	9.975e-5
1.328e+0	9.951e-5
1.329e+0	9.939e-5
1.330e+0	9.933e-5
1.331e+0	9.933e-5
1.332e+0	9.929e-5
1.333e+0	9.926e-5
1.334e+0	9.929e-5
1.335e+0	9.905e-5
1.336e+0	9.902e-5
1.337e+0	9.890e-5
1.338e+0	9.884e-5
1.339e+0	9.881e-5
1.340e+0	9.881e-5
1.341e+0	9.871e-5
1.342e+0	9.850e-5
1.343e+0	9.850e-5
1.344e+0	9.841e-5
1.345e+0	9.838e-5
1.346e+0	9.832e-5
1.347e+0	9.835e-5
1.348e+0	9.832e-5
1.349e+0	9.832e-5
1.350e+0	9.835e-5
1.351e+0	9.832e-5
1.352e+0	9.829e-5
1.353e+0	9.832e-5
1.354e+0	9.829e-5
1.355e+0	9.829e-5
1.356e+0	9.835e-5
1.357e+0	9.835e-5
1.358e+0	9.832e-5
1.359e+0	9.835e-5
1.360e+0	9.838e-5
1.361e+0	9.853e-5
1.362e+0	9.856e-5
1.363e+0	9.865e-5
1.364e+0	9.875e-5
1.365e+0	9.884e-5
1.366e+0	9.881e-5
1.367e+0	9.884e-5
1.368e+0	9.890e-5
1.369e+0	9.914e-5
1.370e+0	9.923e-5
1.371e+0	9.933e-5
1.372e+0	9.926e-5
1.373e+0	9.936e-5
1.374e+0	9.933e-5
1.375e+0	9.957e-5
1.376e+0	9.972e-5
1.377e+0	9.981e-5
1.378e+0	9.981e-5
1.379e+0	9.984e-5
1.380e+0	9.994e-5
1.381e+0	9.994e-5
1.382e+0	1.001e-4
1.383e+0	1.003e-4
1.384e+0	1.003e-4
1.385e+0	1.003e-4
1.386e+0	1.003e-4
1.387e+0	1.003e-4
1.388e+0	1.003e-4
1.389e+0	1.003e-4
1.390e+0	1.003e-4
1.391e+0	1.004e-4
1.392e+0	1.004e-4
1.393e+0	1.005e-4
1.394e+0	1.004e-4
1.395e+0	1.005e-4
1.396e+0	1.004e-4
1.397e+0	1.005e-4
1.398e+0	1.006e-4
1.399e+0	1.006e-4
1.400e+0	1.006e-4
1.401e+0	1.007e-4
1.402e+0	1.007e-4
1.403e+0	1.008e-4
1.404e+0	1.007e-4
1.405e+0	1.008e-4
1.406e+0	1.008e-4
1.407e+0	1.008e-4
1.408e+0	1.008e-4
1.409e+0	1.008e-4
1.410e+0	1.008e-4
1.411e+0	1.008e-4
1.412e+0	1.009e-4
1.413e+0	1.009e-4
1.414e+0	1.009e-4
1.415e+0	1.009e-4
1.416e+0	1.011e-4
1.417e+0	1.011e-4
1.418e+0	1.012e-4
1.419e+0	1.012e-4
1.420e+0	1.012e-4
1.421e+0	1.012e-4
1.422e+0	1.013e-4
1.423e+0	1.013e-4
1.424e+0	1.014e-4
1.425e+0	1.017e-4
1.426e+0	1.018e-4
1.427e+0	1.018e-4
1.428e+0	1.020e-4
1.429e+0	1.022e-4
1.430e+0	1.023e-4
1.431e+0	1.024e-4
1.432e+0	1.027e-4
1.433e+0	1.027e-4
1.434e+0	1.029e-4
1.435e+0	1.031e-4
1.436e+0	1.032e-4
1.437e+0	1.034e-4
1.438e+0	1.037e-4
1.439e+0	1.038e-4
1.440e+0	1.041e-4
1.441e+0	1.042e-4
1.442e+0	1.044e-4
1.443e+0	1.047e-4
1.444e+0	1.048e-4
1.445e+0	1.049e-4
1.446e+0	1.051e-4
1.447e+0	1.052e-4
1.448e+0	1.053e-4
1.449e+0	1.056e-4
1.450e+0	1.056e-4
1.451e+0	1.057e-4
1.452e+0	1.057e-4
1.453e+0	1.056e-4
1.454e+0	1.057e-4
1.455e+0	1.057e-4
1.456e+0	1.056e-4
1.457e+0	1.056e-4
1.458e+0	1.055e-4
1.459e+0	1.052e-4
1.460e+0	1.052e-4
1.461e+0	1.051e-4
1.462e+0	1.050e-4
1.463e+0	1.047e-4
1.464e+0	1.047e-4
1.465e+0	1.045e-4
1.466e+0	1.042e-4
1.467e+0	1.042e-4
1.468e+0	1.038e-4
1.469e+0	1.037e-4
1.470e+0	1.035e-4
1.471e+0	1.032e-4
1.472e+0	1.031e-4
1.473e+0	1.029e-4
1.474e+0	1.027e-4
1.475e+0	1.023e-4
1.476e+0	1.022e-4
1.477e+0	1.018e-4
1.478e+0	1.018e-4
1.479e+0	1.015e-4
1.480e+0	1.013e-4
1.481e+0	1.012e-4
1.482e+0	1.009e-4
1.483e+0	1.008e-4
1.484e+0	1.004e-4
1.485e+0	1.003e-4
1.486e+0	1.000e-4
1.487e+0	9.984e-5
1.488e+0	9.975e-5
1.489e+0	9.954e-5
1.490e+0	9.933e-5
1.491e+0	9.917e-5
1.492e+0	9.893e-5
1.493e+0	9.884e-5
1.494e+0	9.884e-5
1.495e+0	9.862e-5
1.496e+0	9.841e-5
1.497e+0	9.832e-5
1.498e+0	9.832e-5
1.499e+0	9.804e-5
1.500e+0	9.789e-5
1.501e+0	9.786e-5
1.502e+0	9.780e-5
1.503e+0	9.777e-5
1.504e+0	9.774e-5
1.505e+0	9.755e-5
1.506e+0	9.743e-5
1.507e+0	9.740e-5
1.508e+0	9.737e-5
1.509e+0	9.734e-5
1.510e+0	9.737e-5
1.511e+0	9.737e-5
1.512e+0	9.737e-5
1.513e+0	9.734e-5
1.514e+0	9.734e-5
1.515e+0	9.737e-5
1.516e+0	9.737e-5
1.517e+0	9.737e-5
1.518e+0	9.737e-5
1.519e+0	9.746e-5
1.520e+0	9.743e-5
1.521e+0	9.765e-5
1.522e+0	9.758e-5
1.523e+0	9.780e-5
1.524e+0	9.780e-5
1.525e+0	9.783e-5
1.526e+0	9.786e-5
1.527e+0	9.786e-5
1.528e+0	9.789e-5
1.529e+0	9.786e-5
1.530e+0	9.792e-5
1.531e+0	9.792e-5
1.532e+0	9.816e-5
1.533e+0	9.810e-5
1.534e+0	9.798e-5
1.535e+0	9.807e-5
1.536e+0	9.804e-5
1.537e+0	9.823e-5
1.538e+0	9.820e-5
1.539e+0	9.820e-5
1.540e+0	9.816e-5
1.541e+0	9.810e-5
1.542e+0	9.823e-5
1.543e+0	9.820e-5
1.544e+0	9.820e-5
1.545e+0	9.813e-5
1.546e+0	9.816e-5
1.547e+0	9.816e-5
1.548e+0	9.820e-5
1.549e+0	9.810e-5
1.550e+0	9.804e-5
1.551e+0	9.804e-5
1.552e+0	9.798e-5
1.553e+0	9.795e-5
1.554e+0	9.792e-5
1.555e+0	9.789e-5
1.556e+0	9.789e-5
1.557e+0	9.786e-5
1.558e+0	9.786e-5
1.559e+0	9.786e-5
1.560e+0	9.783e-5
1.561e+0	9.786e-5
1.562e+0	9.774e-5
1.563e+0	9.768e-5
1.564e+0	9.752e-5
1.565e+0	9.746e-5
1.566e+0	9.737e-5
1.567e+0	9.734e-5
1.568e+0	9.731e-5
1.569e+0	9.707e-5
1.570e+0	9.697e-5
1.571e+0	9.691e-5
1.572e+0	9.685e-5
1.573e+0	9.685e-5
1.574e+0	9.664e-5
1.575e+0	9.652e-5
1.576e+0	9.639e-5
1.577e+0	9.636e-5
1.578e+0	9.636e-5
1.579e+0	9.603e-5
1.580e+0	9.590e-5
1.581e+0	9.590e-5
1.582e+0	9.590e-5
1.583e+0	9.569e-5
1.584e+0	9.551e-5
1.585e+0	9.542e-5
1.586e+0	9.542e-5
1.587e+0	9.539e-5
1.588e+0	9.514e-5
1.589e+0	9.502e-5
1.590e+0	9.493e-5
1.591e+0	9.493e-5
1.592e+0	9.490e-5
1.593e+0	9.490e-5
1.594e+0	9.481e-5
1.595e+0	9.465e-5
1.596e+0	9.462e-5
1.597e+0	9.459e-5
1.598e+0	9.465e-5
1.599e+0	9.462e-5
1.600e+0	9.471e-5
1.601e+0	9.471e-5
1.602e+0	9.487e-5
1.603e+0	9.493e-5
1.604e+0	9.493e-5
1.605e+0	9.493e-5
1.606e+0	9.508e-5
1.607e+0	9.529e-5
1.608e+0	9.539e-5
1.609e+0	9.551e-5
1.610e+0	9.584e-5
1.611e+0	9.590e-5
1.612e+0	9.606e-5
1.613e+0	9.633e-5
1.614e+0	9.645e-5
1.615e+0	9.688e-5
1.616e+0	9.694e-5
1.617e+0	9.731e-5
1.618e+0	9.740e-5
1.619e+0	9.777e-5
1.620e+0	9.786e-5
1.621e+0	9.826e-5
1.622e+0	9.835e-5
1.623e+0	9.859e-5
1.624e+0	9.875e-5
1.625e+0	9.884e-5
1.626e+0	9.890e-5
1.627e+0	9.899e-5
1.628e+0	9.923e-5
1.629e+0	9.933e-5
1.630e+0	9.933e-5
1.631e+0	9.933e-5
1.632e+0	9.942e-5
1.633e+0	9.951e-5
1.634e+0	9.933e-5
1.635e+0	9.951e-5
1.636e+0	9.942e-5
1.637e+0	9.945e-5
1.638e+0	9.945e-5
1.639e+0	9.939e-5
1.640e+0	9.933e-5
1.641e+0	9.933e-5
1.642e+0	9.929e-5
1.643e+0	9.929e-5
1.644e+0	9.920e-5
1.645e+0	9.911e-5
1.646e+0	9.890e-5
1.647e+0	9.884e-5
1.648e+0	9.884e-5
1.649e+0	9.881e-5
1.650e+0	9.856e-5
1.651e+0	9.847e-5
1.652e+0	9.835e-5
1.653e+0	9.829e-5
1.654e+0	9.810e-5
1.655e+0	9.792e-5
1.656e+0	9.783e-5
1.657e+0	9.780e-5
1.658e+0	9.752e-5
1.659e+0	9.749e-5
1.660e+0	9.737e-5
1.661e+0	9.719e-5
1.662e+0	9.700e-5
1.663e+0	9.688e-5
1.664e+0	9.685e-5
1.665e+0	9.661e-5
1.666e+0	9.642e-5
1.667e+0	9.639e-5
1.668e+0	9.621e-5
1.669e+0	9.603e-5
1.670e+0	9.590e-5
1.671e+0	9.587e-5
1.672e+0	9.572e-5
1.673e+0	9.545e-5
1.674e+0	9.542e-5
1.675e+0	9.536e-5
1.676e+0	9.514e-5
1.677e+0	9.496e-5
1.678e+0	9.496e-5
1.679e+0	9.493e-5
1.680e+0	9.474e-5
1.681e+0	9.456e-5
1.682e+0	9.444e-5
1.683e+0	9.444e-5
1.684e+0	9.435e-5
1.685e+0	9.441e-5
1.686e+0	9.423e-5
1.687e+0	9.413e-5
1.688e+0	9.407e-5
1.689e+0	9.398e-5
1.690e+0	9.395e-5
1.691e+0	9.395e-5
1.692e+0	9.395e-5
1.693e+0	9.395e-5
1.694e+0	9.395e-5
1.695e+0	9.395e-5
1.696e+0	9.395e-5
1.697e+0	9.395e-5
1.698e+0	9.392e-5
1.699e+0	9.398e-5
1.700e+0	9.398e-5
1.701e+0	9.401e-5
1.702e+0	9.416e-5
1.703e+0	9.435e-5
1.704e+0	9.441e-5
1.705e+0	9.444e-5
1.706e+0	9.444e-5
1.707e+0	9.444e-5
1.708e+0	9.447e-5
1.709e+0	9.450e-5
1.710e+0	9.453e-5
1.711e+0	9.456e-5
1.712e+0	9.456e-5
1.713e+0	9.465e-5
1.714e+0	9.487e-5
1.715e+0	9.471e-5
1.716e+0	9.484e-5
1.717e+0	9.465e-5
1.718e+0	9.474e-5
1.719e+0	9.462e-5
1.720e+0	9.462e-5
1.721e+0	9.456e-5
1.722e+0	9.444e-5
1.723e+0	9.444e-5
1.724e+0	9.441e-5
1.725e+0	9.444e-5
1.726e+0	9.438e-5
1.727e+0	9.416e-5
1.728e+0	9.404e-5
1.729e+0	9.395e-5
1.730e+0	9.392e-5
1.731e+0	9.389e-5
1.732e+0	9.368e-5
1.733e+0	9.358e-5
1.734e+0	9.349e-5
1.735e+0	9.349e-5
1.736e+0	9.343e-5
1.737e+0	9.343e-5
1.738e+0	9.328e-5
1.739e+0	9.303e-5
1.740e+0	9.294e-5
1.741e+0	9.297e-5
1.742e+0	9.294e-5
1.743e+0	9.297e-5
1.744e+0	9.261e-5
1.745e+0	9.248e-5
1.746e+0	9.245e-5
1.747e+0	9.242e-5
1.748e+0	9.224e-5
1.749e+0	9.206e-5
1.750e+0	9.200e-5
1.751e+0	9.200e-5
1.752e+0	9.193e-5
1.753e+0	9.181e-5
1.754e+0	9.160e-5
1.755e+0	9.151e-5
1.756e+0	9.148e-5
1.757e+0	9.142e-5
1.758e+0	9.139e-5
1.759e+0	9.108e-5
1.760e+0	9.099e-5
1.761e+0	9.099e-5
1.762e+0	9.102e-5
1.763e+0	9.080e-5
1.764e+0	9.059e-5
1.765e+0	9.053e-5
1.766e+0	9.053e-5
1.767e+0	9.053e-5
1.768e+0	9.047e-5
1.769e+0	9.047e-5
1.770e+0	9.050e-5
1.771e+0	9.038e-5
1.772e+0	9.032e-5
1.773e+0	9.022e-5
1.774e+0	9.010e-5
1.775e+0	9.026e-5
1.776e+0	9.016e-5
1.777e+0	9.041e-5
1.778e+0	9.041e-5
1.779e+0	9.053e-5
1.780e+0	9.050e-5
1.781e+0	9.053e-5
1.782e+0	9.065e-5
1.783e+0	9.071e-5
1.784e+0	9.087e-5
1.785e+0	9.102e-5
1.786e+0	9.108e-5
1.787e+0	9.123e-5
1.788e+0	9.148e-5
1.789e+0	9.148e-5
1.790e+0	9.148e-5
1.791e+0	9.151e-5
1.792e+0	9.166e-5
1.793e+0	9.175e-5
1.794e+0	9.193e-5
1.795e+0	9.193e-5
1.796e+0	9.193e-5
1.797e+0	9.200e-5
1.798e+0	9.200e-5
1.799e+0	9.200e-5
1.800e+0	9.200e-5
1.801e+0	9.200e-5
1.802e+0	9.197e-5
1.803e+0	9.200e-5
1.804e+0	9.197e-5
1.805e+0	9.200e-5
1.806e+0	9.200e-5
1.807e+0	9.200e-5
1.808e+0	9.200e-5
1.809e+0	9.200e-5
1.810e+0	9.197e-5
1.811e+0	9.200e-5
1.812e+0	9.197e-5
1.813e+0	9.197e-5
1.814e+0	9.197e-5
1.815e+0	9.200e-5
1.816e+0	9.197e-5
1.817e+0	9.193e-5
1.818e+0	9.190e-5
1.819e+0	9.190e-5
1.820e+0	9.200e-5
1.821e+0	9.197e-5
1.822e+0	9.193e-5
1.823e+0	9.200e-5
1.824e+0	9.187e-5
1.825e+0	9.187e-5
1.826e+0	9.197e-5
1.827e+0	9.197e-5
1.828e+0	9.190e-5
1.829e+0	9.172e-5
1.830e+0	9.172e-5
1.831e+0	9.187e-5
1.832e+0	9.184e-5
1.833e+0	9.169e-5
1.834e+0	9.160e-5
1.835e+0	9.166e-5
1.836e+0	9.154e-5
1.837e+0	9.160e-5
1.838e+0	9.148e-5
1.839e+0	9.151e-5
1.840e+0	9.148e-5
1.841e+0	9.132e-5
1.842e+0	9.123e-5
1.843e+0	9.114e-5
1.844e+0	9.099e-5
1.845e+0	9.102e-5
1.846e+0	9.099e-5
1.847e+0	9.090e-5
1.848e+0	9.062e-5
1.849e+0	9.059e-5
1.850e+0	9.053e-5
1.851e+0	9.053e-5
1.852e+0	9.038e-5
1.853e+0	9.041e-5
1.854e+0	9.022e-5
1.855e+0	9.013e-5
1.856e+0	9.004e-5
1.857e+0	9.004e-5
1.858e+0	9.001e-5
1.859e+0	9.004e-5
1.860e+0	8.998e-5
1.861e+0	8.995e-5
1.862e+0	8.989e-5
1.863e+0	8.983e-5
1.864e+0	8.971e-5
1.865e+0	8.974e-5
1.866e+0	8.967e-5
1.867e+0	8.961e-5
1.868e+0	8.955e-5
1.869e+0	8.967e-5
1.870e+0	8.967e-5
1.871e+0	8.961e-5
1.872e+0	8.967e-5
1.873e+0	8.983e-5
1.874e+0	8.977e-5
1.875e+0	8.983e-5
1.876e+0	8.989e-5
1.877e+0	8.995e-5
1.878e+0	8.995e-5
1.879e+0	8.998e-5
1.880e+0	8.998e-5
1.881e+0	9.001e-5
1.882e+0	9.004e-5
1.883e+0	9.004e-5
1.884e+0	9.001e-5
1.885e+0	9.004e-5
1.886e+0	9.001e-5
1.887e+0	9.007e-5
1.888e+0	9.016e-5
1.889e+0	9.022e-5
1.890e+0	9.035e-5
1.891e+0	9.050e-5
1.892e+0	9.053e-5
1.893e+0	9.050e-5
1.894e+0	9.050e-5
1.895e+0	9.050e-5
1.896e+0	9.050e-5
1.897e+0	9.053e-5
1.898e+0	9.050e-5
1.899e+0	9.071e-5
1.900e+0	9.077e-5
1.901e+0	9.080e-5
1.902e+0	9.074e-5
1.903e+0	9.090e-5
1.904e+0	9.093e-5
1.905e+0	9.099e-5
1.906e+0	9.099e-5
1.907e+0	9.102e-5
1.908e+0	9.099e-5
1.909e+0	9.105e-5
1.910e+0	9.105e-5
1.911e+0	9.105e-5
1.912e+0	9.108e-5
1.913e+0	9.111e-5
1.914e+0	9.114e-5
1.915e+0	9.117e-5
1.916e+0	9.114e-5
1.917e+0	9.111e-5
1.918e+0	9.108e-5
1.919e+0	9.114e-5
1.920e+0	9.114e-5
1.921e+0	9.114e-5
1.922e+0	9.102e-5
1.923e+0	9.108e-5
1.924e+0	9.102e-5
1.925e+0	9.123e-5
1.926e+0	9.108e-5
1.927e+0	9.123e-5
1.928e+0	9.117e-5
1.929e+0	9.129e-5
1.930e+0	9.142e-5
1.931e+0	9.142e-5
1.932e+0	9.148e-5
1.933e+0	9.145e-5
1.934e+0	9.151e-5
1.935e+0	9.151e-5
1.936e+0	9.151e-5
1.937e+0	9.163e-5
1.938e+0	9.166e-5
1.939e+0	9.187e-5
1.940e+0	9.190e-5
1.941e+0	9.197e-5
1.942e+0	9.200e-5
1.943e+0	9.209e-5
1.944e+0	9.230e-5
1.945e+0	9.239e-5
1.946e+0	9.248e-5
1.947e+0	9.255e-5
1.948e+0	9.270e-5
1.949e+0	9.291e-5
1.950e+0	9.297e-5
1.951e+0	9.294e-5
1.952e+0	9.300e-5
1.953e+0	9.297e-5
1.954e+0	9.300e-5
1.955e+0	9.300e-5
1.956e+0	9.297e-5
1.957e+0	9.291e-5
1.958e+0	9.297e-5
1.959e+0	9.297e-5
1.960e+0	9.291e-5
1.961e+0	9.288e-5
1.962e+0	9.279e-5
1.963e+0	9.261e-5
1.964e+0	9.252e-5
1.965e+0	9.248e-5
1.966e+0	9.245e-5
1.967e+0	9.236e-5
1.968e+0	9.209e-5
1.969e+0	9.200e-5
1.970e+0	9.200e-5
1.971e+0	9.181e-5
1.972e+0	9.157e-5
1.973e+0	9.151e-5
1.974e+0	9.139e-5
1.975e+0	9.114e-5
1.976e+0	9.102e-5
1.977e+0	9.090e-5
1.978e+0	9.062e-5
1.979e+0	9.056e-5
1.980e+0	9.047e-5
1.981e+0	9.007e-5
1.982e+0	9.004e-5
1.983e+0	9.001e-5
1.984e+0	8.992e-5
1.985e+0	8.967e-5
1.986e+0	8.958e-5
1.987e+0	8.949e-5
1.988e+0	8.955e-5
1.989e+0	8.940e-5
1.990e+0	8.916e-5
1.991e+0	8.909e-5
1.992e+0	8.909e-5
1.993e+0	8.906e-5
1.994e+0	8.906e-5
1.995e+0	8.900e-5
1.996e+0	8.897e-5
1.997e+0	8.900e-5
1.998e+0	8.894e-5
1.999e+0	8.897e-5
2.000e+0	8.897e-5
2.001e+0	8.900e-5
2.002e+0	8.897e-5
2.003e+0	8.897e-5
2.004e+0	8.903e-5
2.005e+0	8.903e-5
2.006e+0	8.903e-5
2.007e+0	8.903e-5
2.008e+0	8.906e-5
2.009e+0	8.906e-5
2.010e+0	8.916e-5
2.011e+0	8.919e-5
2.012e+0	8.931e-5
2.013e+0	8.949e-5
2.014e+0	8.952e-5
2.015e+0	8.955e-5
2.016e+0	8.955e-5
2.017e+0	8.955e-5
2.018e+0	8.958e-5
2.019e+0	8.967e-5
2.020e+0	8.967e-5
2.021e+0	8.977e-5
2.022e+0	8.992e-5
2.023e+0	8.995e-5
2.024e+0	8.998e-5
2.025e+0	9.004e-5
2.026e+0	9.004e-5
2.027e+0	9.004e-5
2.028e+0	9.004e-5
2.029e+0	9.004e-5
2.030e+0	9.004e-5
2.031e+0	9.004e-5
2.032e+0	9.010e-5
2.033e+0	9.004e-5
2.034e+0	9.007e-5
2.035e+0	9.004e-5
2.036e+0	9.004e-5
2.037e+0	9.004e-5
2.038e+0	9.004e-5
2.039e+0	9.004e-5
2.040e+0	9.004e-5
2.041e+0	9.004e-5
2.042e+0	9.001e-5
2.043e+0	9.004e-5
2.044e+0	9.001e-5
2.045e+0	9.004e-5
2.046e+0	8.995e-5
2.047e+0	8.998e-5
2.048e+0	8.998e-5
2.049e+0	9.001e-5
2.050e+0	8.992e-5
2.051e+0	9.001e-5
2.052e+0	8.998e-5
2.053e+0	9.004e-5
2.054e+0	9.004e-5
2.055e+0	8.998e-5
2.056e+0	9.004e-5
2.057e+0	8.998e-5
2.058e+0	9.004e-5
2.059e+0	9.004e-5
2.060e+0	9.004e-5
2.061e+0	9.004e-5
2.062e+0	9.004e-5
2.063e+0	9.007e-5
2.064e+0	9.004e-5
2.065e+0	9.010e-5
2.066e+0	9.013e-5
2.067e+0	9.019e-5
2.068e+0	9.022e-5
2.069e+0	9.016e-5
2.070e+0	9.035e-5
2.071e+0	9.044e-5
2.072e+0	9.041e-5
2.073e+0	9.047e-5
2.074e+0	9.047e-5
2.075e+0	9.053e-5
2.076e+0	9.053e-5
2.077e+0	9.053e-5
2.078e+0	9.053e-5
2.079e+0	9.059e-5
2.080e+0	9.059e-5
2.081e+0	9.071e-5
2.082e+0	9.084e-5
2.083e+0	9.087e-5
2.084e+0	9.096e-5
2.085e+0	9.093e-5
2.086e+0	9.102e-5
2.087e+0	9.105e-5
2.088e+0	9.108e-5
2.089e+0	9.105e-5
2.090e+0	9.108e-5
2.091e+0	9.108e-5
2.092e+0	9.120e-5
2.093e+0	9.117e-5
2.094e+0	9.135e-5
2.095e+0	9.135e-5
2.096e+0	9.145e-5
2.097e+0	9.148e-5
2.098e+0	9.151e-5
2.099e+0	9.157e-5
2.100e+0	9.154e-5
2.101e+0	9.166e-5
2.102e+0	9.184e-5
2.103e+0	9.197e-5
2.104e+0	9.200e-5
2.105e+0	9.212e-5
2.106e+0	9.221e-5
2.107e+0	9.245e-5
2.108e+0	9.248e-5
2.109e+0	9.252e-5
2.110e+0	9.282e-5
2.111e+0	9.294e-5
2.112e+0	9.313e-5
2.113e+0	9.340e-5
2.114e+0	9.346e-5
2.115e+0	9.365e-5
2.116e+0	9.392e-5
2.117e+0	9.395e-5
2.118e+0	9.416e-5
2.119e+0	9.444e-5
2.120e+0	9.447e-5
2.121e+0	9.456e-5
2.122e+0	9.465e-5
2.123e+0	9.484e-5
2.124e+0	9.487e-5
2.125e+0	9.493e-5
2.126e+0	9.493e-5
2.127e+0	9.493e-5
2.128e+0	9.493e-5
2.129e+0	9.493e-5
2.130e+0	9.493e-5
2.131e+0	9.493e-5
2.132e+0	9.490e-5
2.133e+0	9.487e-5
2.134e+0	9.474e-5
2.135e+0	9.456e-5
2.136e+0	9.450e-5
2.137e+0	9.447e-5
2.138e+0	9.441e-5
2.139e+0	9.432e-5
2.140e+0	9.413e-5
2.141e+0	9.395e-5
2.142e+0	9.395e-5
2.143e+0	9.380e-5
2.144e+0	9.352e-5
2.145e+0	9.349e-5
2.146e+0	9.346e-5
2.147e+0	9.316e-5
2.148e+0	9.297e-5
2.149e+0	9.291e-5
2.150e+0	9.261e-5
2.151e+0	9.248e-5
2.152e+0	9.239e-5
2.153e+0	9.206e-5
2.154e+0	9.197e-5
2.155e+0	9.193e-5
2.156e+0	9.163e-5
2.157e+0	9.151e-5
2.158e+0	9.135e-5
2.159e+0	9.105e-5
2.160e+0	9.099e-5
2.161e+0	9.071e-5
2.162e+0	9.053e-5
2.163e+0	9.044e-5
2.164e+0	9.029e-5
2.165e+0	9.013e-5
2.166e+0	9.001e-5
2.167e+0	8.995e-5
2.168e+0	8.977e-5
2.169e+0	8.955e-5
2.170e+0	8.955e-5
2.171e+0	8.940e-5
2.172e+0	8.919e-5
2.173e+0	8.903e-5
2.174e+0	8.906e-5
2.175e+0	8.897e-5
2.176e+0	8.885e-5
2.177e+0	8.870e-5
2.178e+0	8.858e-5
2.179e+0	8.858e-5
2.180e+0	8.848e-5
2.181e+0	8.848e-5
2.182e+0	8.833e-5
2.183e+0	8.818e-5
2.184e+0	8.818e-5
2.185e+0	8.812e-5
2.186e+0	8.809e-5
2.187e+0	8.809e-5
2.188e+0	8.806e-5
2.189e+0	8.803e-5
2.190e+0	8.806e-5
2.191e+0	8.809e-5
2.192e+0	8.806e-5
2.193e+0	8.809e-5
2.194e+0	8.809e-5
2.195e+0	8.809e-5
2.196e+0	8.809e-5
2.197e+0	8.809e-5
2.198e+0	8.812e-5
2.199e+0	8.812e-5
2.200e+0	8.812e-5
2.201e+0	8.815e-5
2.202e+0	8.821e-5
2.203e+0	8.848e-5
2.204e+0	8.851e-5
2.205e+0	8.858e-5
2.206e+0	8.858e-5
2.207e+0	8.864e-5
2.208e+0	8.879e-5
2.209e+0	8.891e-5
2.210e+0	8.900e-5
2.211e+0	8.906e-5
2.212e+0	8.903e-5
2.213e+0	8.906e-5
2.214e+0	8.906e-5
2.215e+0	8.909e-5
2.216e+0	8.931e-5
2.217e+0	8.940e-5
2.218e+0	8.946e-5
2.219e+0	8.952e-5
2.220e+0	8.952e-5
2.221e+0	8.955e-5
2.222e+0	8.955e-5
2.223e+0	8.958e-5
2.224e+0	8.967e-5
2.225e+0	8.983e-5
2.226e+0	8.983e-5
2.227e+0	9.001e-5
2.228e+0	9.004e-5
2.229e+0	9.004e-5
2.230e+0	9.001e-5
2.231e+0	9.004e-5
2.232e+0	9.010e-5
2.233e+0	9.013e-5
2.234e+0	9.013e-5
2.235e+0	9.022e-5
2.236e+0	9.022e-5
2.237e+0	9.026e-5
2.238e+0	9.041e-5
2.239e+0	9.041e-5
2.240e+0	9.044e-5
2.241e+0	9.041e-5
2.242e+0	9.047e-5
2.243e+0	9.050e-5
2.244e+0	9.038e-5
2.245e+0	9.044e-5
2.246e+0	9.044e-5
2.247e+0	9.044e-5
2.248e+0	9.041e-5
2.249e+0	9.038e-5
2.250e+0	9.038e-5
2.251e+0	9.013e-5
2.252e+0	9.007e-5
2.253e+0	9.004e-5
2.254e+0	9.001e-5
2.255e+0	9.004e-5
2.256e+0	9.004e-5
2.257e+0	9.004e-5
2.258e+0	9.001e-5
2.259e+0	8.998e-5
2.260e+0	8.995e-5
2.261e+0	9.001e-5
2.262e+0	8.986e-5
2.263e+0	8.971e-5
2.264e+0	8.967e-5
2.265e+0	8.958e-5
2.266e+0	8.958e-5
2.267e+0	8.955e-5
2.268e+0	8.952e-5
2.269e+0	8.955e-5
2.270e+0	8.952e-5
2.271e+0	8.952e-5
2.272e+0	8.952e-5
2.273e+0	8.955e-5
2.274e+0	8.955e-5
2.275e+0	8.955e-5
2.276e+0	8.949e-5
2.277e+0	8.955e-5
2.278e+0	8.952e-5
2.279e+0	8.955e-5
2.280e+0	8.952e-5
2.281e+0	8.961e-5
2.282e+0	8.977e-5
2.283e+0	8.992e-5
2.284e+0	9.001e-5
2.285e+0	9.004e-5
2.286e+0	9.016e-5
2.287e+0	9.044e-5
2.288e+0	9.059e-5
2.289e+0	9.071e-5
2.290e+0	9.096e-5
2.291e+0	9.105e-5
2.292e+0	9.135e-5
2.293e+0	9.151e-5
2.294e+0	9.154e-5
2.295e+0	9.187e-5
2.296e+0	9.193e-5
2.297e+0	9.200e-5
2.298e+0	9.212e-5
2.299e+0	9.236e-5
2.300e+0	9.245e-5
2.301e+0	9.248e-5
2.302e+0	9.245e-5
2.303e+0	9.252e-5
2.304e+0	9.258e-5
2.305e+0	9.258e-5
2.306e+0	9.270e-5
2.307e+0	9.276e-5
2.308e+0	9.282e-5
2.309e+0	9.276e-5
2.310e+0	9.270e-5
2.311e+0	9.267e-5
2.312e+0	9.258e-5
2.313e+0	9.255e-5
2.314e+0	9.248e-5
2.315e+0	9.248e-5
2.316e+0	9.245e-5
2.317e+0	9.230e-5
2.318e+0	9.209e-5
2.319e+0	9.200e-5
2.320e+0	9.193e-5
2.321e+0	9.181e-5
2.322e+0	9.154e-5
2.323e+0	9.151e-5
2.324e+0	9.135e-5
2.325e+0	9.114e-5
2.326e+0	9.102e-5
2.327e+0	9.084e-5
2.328e+0	9.059e-5
2.329e+0	9.053e-5
2.330e+0	9.047e-5
2.331e+0	9.019e-5
2.332e+0	9.004e-5
2.333e+0	9.004e-5
2.334e+0	8.989e-5
2.335e+0	8.961e-5
2.336e+0	8.955e-5
2.337e+0	8.955e-5
2.338e+0	8.931e-5
2.339e+0	8.906e-5
2.340e+0	8.903e-5
2.341e+0	8.888e-5
2.342e+0	8.870e-5
2.343e+0	8.858e-5
2.344e+0	8.851e-5
2.345e+0	8.854e-5
2.346e+0	8.815e-5
2.347e+0	8.809e-5
2.348e+0	8.806e-5
2.349e+0	8.806e-5
2.350e+0	8.787e-5
2.351e+0	8.763e-5
2.352e+0	8.757e-5
2.353e+0	8.760e-5
2.354e+0	8.751e-5
2.355e+0	8.754e-5
2.356e+0	8.732e-5
2.357e+0	8.723e-5
2.358e+0	8.717e-5
2.359e+0	8.711e-5
2.360e+0	8.708e-5
2.361e+0	8.714e-5
2.362e+0	8.708e-5
2.363e+0	8.711e-5
2.364e+0	8.702e-5
2.365e+0	8.708e-5
2.366e+0	8.708e-5
2.367e+0	8.708e-5
2.368e+0	8.708e-5
2.369e+0	8.702e-5
2.370e+0	8.711e-5
2.371e+0	8.711e-5
2.372e+0	8.711e-5
2.373e+0	8.711e-5
2.374e+0	8.714e-5
2.375e+0	8.732e-5
2.376e+0	8.738e-5
2.377e+0	8.751e-5
2.378e+0	8.757e-5
2.379e+0	8.757e-5
2.380e+0	8.757e-5
2.381e+0	8.760e-5
2.382e+0	8.769e-5
2.383e+0	8.778e-5
2.384e+0	8.800e-5
2.385e+0	8.809e-5
2.386e+0	8.809e-5
2.387e+0	8.818e-5
2.388e+0	8.842e-5
2.389e+0	8.854e-5
2.390e+0	8.858e-5
2.391e+0	8.858e-5
2.392e+0	8.870e-5
2.393e+0	8.894e-5
2.394e+0	8.903e-5
2.395e+0	8.913e-5
2.396e+0	8.931e-5
2.397e+0	8.949e-5
2.398e+0	8.955e-5
2.399e+0	8.964e-5
2.400e+0	8.980e-5
2.401e+0	9.004e-5
2.402e+0	9.001e-5
2.403e+0	9.013e-5
2.404e+0	9.029e-5
2.405e+0	9.047e-5
2.406e+0	9.050e-5
2.407e+0	9.053e-5
2.408e+0	9.056e-5
2.409e+0	9.087e-5
2.410e+0	9.096e-5
2.411e+0	9.102e-5
2.412e+0	9.105e-5
2.413e+0	9.135e-5
2.414e+0	9.135e-5
2.415e+0	9.145e-5
2.416e+0	9.148e-5
2.417e+0	9.151e-5
2.418e+0	9.148e-5
2.419e+0	9.151e-5
2.420e+0	9.151e-5
2.421e+0	9.151e-5
2.422e+0	9.151e-5
2.423e+0	9.151e-5
2.424e+0	9.151e-5
2.425e+0	9.151e-5
2.426e+0	9.148e-5
2.427e+0	9.151e-5
2.428e+0	9.145e-5
2.429e+0	9.142e-5
2.430e+0	9.139e-5
2.431e+0	9.117e-5
2.432e+0	9.108e-5
2.433e+0	9.105e-5
2.434e+0	9.096e-5
2.435e+0	9.102e-5
2.436e+0	9.096e-5
2.437e+0	9.087e-5
2.438e+0	9.077e-5
2.439e+0	9.074e-5
2.440e+0	9.062e-5
2.441e+0	9.056e-5
2.442e+0	9.053e-5
2.443e+0	9.053e-5
2.444e+0	9.053e-5
2.445e+0	9.044e-5
2.446e+0	9.044e-5
2.447e+0	9.029e-5
2.448e+0	9.029e-5
2.449e+0	9.019e-5
2.450e+0	9.013e-5
2.451e+0	9.013e-5
2.452e+0	9.013e-5
2.453e+0	9.019e-5
2.454e+0	9.032e-5
2.455e+0	9.022e-5
2.456e+0	9.044e-5
2.457e+0	9.050e-5
2.458e+0	9.053e-5
2.459e+0	9.059e-5
2.460e+0	9.080e-5
2.461e+0	9.099e-5
2.462e+0	9.102e-5
2.463e+0	9.123e-5
2.464e+0	9.145e-5
2.465e+0	9.151e-5
2.466e+0	9.160e-5
2.467e+0	9.178e-5
2.468e+0	9.200e-5
2.469e+0	9.200e-5
2.470e+0	9.215e-5
2.471e+0	9.227e-5
2.472e+0	9.245e-5
2.473e+0	9.242e-5
2.474e+0	9.248e-5
2.475e+0	9.252e-5
2.476e+0	9.248e-5
2.477e+0	9.258e-5
2.478e+0	9.261e-5
2.479e+0	9.255e-5
2.480e+0	9.252e-5
2.481e+0	9.258e-5
2.482e+0	9.248e-5
2.483e+0	9.248e-5
2.484e+0	9.248e-5
2.485e+0	9.242e-5
2.486e+0	9.236e-5
2.487e+0	9.215e-5
2.488e+0	9.203e-5
2.489e+0	9.203e-5
2.490e+0	9.200e-5
2.491e+0	9.181e-5
2.492e+0	9.172e-5
2.493e+0	9.151e-5
2.494e+0	9.151e-5
2.495e+0	9.129e-5
2.496e+0	9.105e-5
2.497e+0	9.096e-5
2.498e+0	9.077e-5
2.499e+0	9.062e-5
2.500e+0	9.053e-5
2.501e+0	9.041e-5
2.502e+0	9.019e-5
2.503e+0	9.004e-5
2.504e+0	8.998e-5
2.505e+0	8.986e-5
2.506e+0	8.961e-5
2.507e+0	8.958e-5
2.508e+0	8.955e-5
2.509e+0	8.943e-5
2.510e+0	8.909e-5
2.511e+0	8.913e-5
2.512e+0	8.906e-5
2.513e+0	8.900e-5
2.514e+0	8.867e-5
2.515e+0	8.870e-5
2.516e+0	8.861e-5
2.517e+0	8.858e-5
2.518e+0	8.848e-5
2.519e+0	8.827e-5
2.520e+0	8.809e-5
2.521e+0	8.809e-5
2.522e+0	8.809e-5
2.523e+0	8.796e-5
2.524e+0	8.784e-5
2.525e+0	8.769e-5
2.526e+0	8.763e-5
2.527e+0	8.760e-5
2.528e+0	8.760e-5
2.529e+0	8.754e-5
2.530e+0	8.738e-5
2.531e+0	8.726e-5
2.532e+0	8.720e-5
2.533e+0	8.717e-5
2.534e+0	8.711e-5
2.535e+0	8.711e-5
2.536e+0	8.711e-5
2.537e+0	8.711e-5
2.538e+0	8.708e-5
2.539e+0	8.708e-5
2.540e+0	8.711e-5
2.541e+0	8.705e-5
2.542e+0	8.708e-5
2.543e+0	8.711e-5
2.544e+0	8.711e-5
2.545e+0	8.705e-5
2.546e+0	8.714e-5
2.547e+0	8.708e-5
2.548e+0	8.714e-5
2.549e+0	8.714e-5
2.550e+0	8.720e-5
2.551e+0	8.729e-5
2.552e+0	8.754e-5
2.553e+0	8.760e-5
2.554e+0	8.760e-5
2.555e+0	8.769e-5
2.556e+0	8.796e-5
2.557e+0	8.806e-5
2.558e+0	8.809e-5
2.559e+0	8.833e-5
2.560e+0	8.854e-5
2.561e+0	8.858e-5
2.562e+0	8.876e-5
2.563e+0	8.906e-5
2.564e+0	8.906e-5
2.565e+0	8.943e-5
2.566e+0	8.955e-5
2.567e+0	8.961e-5
2.568e+0	8.986e-5
2.569e+0	9.004e-5
2.570e+0	9.016e-5
2.571e+0	9.050e-5
2.572e+0	9.056e-5
2.573e+0	9.087e-5
2.574e+0	9.102e-5
2.575e+0	9.120e-5
2.576e+0	9.151e-5
2.577e+0	9.163e-5
2.578e+0	9.190e-5
2.579e+0	9.200e-5
2.580e+0	9.215e-5
2.581e+0	9.245e-5
2.582e+0	9.248e-5
2.583e+0	9.273e-5
2.584e+0	9.294e-5
2.585e+0	9.297e-5
2.586e+0	9.319e-5
2.587e+0	9.340e-5
2.588e+0	9.346e-5
2.589e+0	9.371e-5
2.590e+0	9.383e-5
2.591e+0	9.392e-5
2.592e+0	9.395e-5
2.593e+0	9.426e-5
2.594e+0	9.438e-5
2.595e+0	9.444e-5
2.596e+0	9.447e-5
2.597e+0	9.477e-5
2.598e+0	9.490e-5
2.599e+0	9.493e-5
2.600e+0	9.502e-5
2.601e+0	9.517e-5
2.602e+0	9.536e-5
2.603e+0	9.545e-5
2.604e+0	9.548e-5
2.605e+0	9.560e-5
2.606e+0	9.581e-5
2.607e+0	9.590e-5
2.608e+0	9.590e-5
2.609e+0	9.615e-5
2.610e+0	9.633e-5
2.611e+0	9.636e-5
2.612e+0	9.642e-5
2.613e+0	9.655e-5
2.614e+0	9.664e-5
2.615e+0	9.676e-5
2.616e+0	9.691e-5
2.617e+0	9.713e-5
2.618e+0	9.725e-5
2.619e+0	9.737e-5
2.620e+0	9.740e-5
2.621e+0	9.765e-5
2.622e+0	9.783e-5
2.623e+0	9.789e-5
2.624e+0	9.801e-5
2.625e+0	9.835e-5
2.626e+0	9.835e-5
2.627e+0	9.835e-5
2.628e+0	9.865e-5
2.629e+0	9.884e-5
2.630e+0	9.884e-5
2.631e+0	9.890e-5
2.632e+0	9.926e-5
2.633e+0	9.933e-5
2.634e+0	9.939e-5
2.635e+0	9.975e-5
2.636e+0	9.981e-5
2.637e+0	9.988e-5
2.638e+0	1.002e-4
2.639e+0	1.003e-4
2.640e+0	1.003e-4
2.641e+0	1.004e-4
2.642e+0	1.005e-4
2.643e+0	1.007e-4
2.644e+0	1.008e-4
2.645e+0	1.008e-4
2.646e+0	1.007e-4
2.647e+0	1.008e-4
2.648e+0	1.007e-4
2.649e+0	1.006e-4
2.650e+0	1.005e-4
2.651e+0	1.003e-4
2.652e+0	1.003e-4
2.653e+0	1.003e-4
2.654e+0	1.002e-4
2.655e+0	1.001e-4
2.656e+0	9.984e-5
2.657e+0	9.981e-5
2.658e+0	9.963e-5
2.659e+0	9.948e-5
2.660e+0	9.933e-5
2.661e+0	9.926e-5
2.662e+0	9.896e-5
2.663e+0	9.884e-5
2.664e+0	9.865e-5
2.665e+0	9.838e-5
2.666e+0	9.835e-5
2.667e+0	9.804e-5
2.668e+0	9.786e-5
2.669e+0	9.758e-5
2.670e+0	9.737e-5
2.671e+0	9.725e-5
2.672e+0	9.691e-5
2.673e+0	9.688e-5
2.674e+0	9.652e-5
2.675e+0	9.639e-5
2.676e+0	9.630e-5
2.677e+0	9.597e-5
2.678e+0	9.584e-5
2.679e+0	9.557e-5
2.680e+0	9.542e-5
2.681e+0	9.526e-5
2.682e+0	9.502e-5
2.683e+0	9.490e-5
2.684e+0	9.471e-5
2.685e+0	9.444e-5
2.686e+0	9.435e-5
2.687e+0	9.429e-5
2.688e+0	9.392e-5
2.689e+0	9.392e-5
2.690e+0	9.374e-5
2.691e+0	9.349e-5
2.692e+0	9.346e-5
2.693e+0	9.346e-5
2.694e+0	9.331e-5
2.695e+0	9.310e-5
2.696e+0	9.297e-5
2.697e+0	9.297e-5
2.698e+0	9.288e-5
2.699e+0	9.264e-5
2.700e+0	9.258e-5
2.701e+0	9.248e-5
2.702e+0	9.245e-5
2.703e+0	9.248e-5
2.704e+0	9.245e-5
2.705e+0	9.242e-5
2.706e+0	9.236e-5
2.707e+0	9.239e-5
2.708e+0	9.224e-5
2.709e+0	9.218e-5
2.710e+0	9.215e-5
2.711e+0	9.215e-5
2.712e+0	9.212e-5
2.713e+0	9.206e-5
2.714e+0	9.212e-5
2.715e+0	9.215e-5
2.716e+0	9.221e-5
2.717e+0	9.224e-5
2.718e+0	9.212e-5
2.719e+0	9.227e-5
2.720e+0	9.227e-5
2.721e+0	9.236e-5
2.722e+0	9.242e-5
2.723e+0	9.245e-5
2.724e+0	9.242e-5
2.725e+0	9.248e-5
2.726e+0	9.248e-5
2.727e+0	9.255e-5
2.728e+0	9.267e-5
2.729e+0	9.270e-5
2.730e+0	9.279e-5
2.731e+0	9.294e-5
2.732e+0	9.294e-5
2.733e+0	9.300e-5
2.734e+0	9.303e-5
2.735e+0	9.328e-5
2.736e+0	9.343e-5
2.737e+0	9.346e-5
2.738e+0	9.346e-5
2.739e+0	9.361e-5
2.740e+0	9.361e-5
2.741e+0	9.374e-5
2.742e+0	9.392e-5
2.743e+0	9.395e-5
2.744e+0	9.395e-5
2.745e+0	9.413e-5
2.746e+0	9.419e-5
2.747e+0	9.438e-5
2.748e+0	9.441e-5
2.749e+0	9.447e-5
2.750e+0	9.459e-5
2.751e+0	9.465e-5
2.752e+0	9.484e-5
2.753e+0	9.490e-5
2.754e+0	9.493e-5
2.755e+0	9.493e-5
2.756e+0	9.517e-5
2.757e+0	9.526e-5
2.758e+0	9.536e-5
2.759e+0	9.539e-5
2.760e+0	9.542e-5
2.761e+0	9.551e-5
2.762e+0	9.560e-5
2.763e+0	9.578e-5
2.764e+0	9.584e-5
2.765e+0	9.590e-5
2.766e+0	9.597e-5
2.767e+0	9.615e-5
2.768e+0	9.630e-5
2.769e+0	9.639e-5
2.770e+0	9.636e-5
2.771e+0	9.645e-5
2.772e+0	9.664e-5
2.773e+0	9.685e-5
2.774e+0	9.685e-5
2.775e+0	9.691e-5
2.776e+0	9.700e-5
2.777e+0	9.731e-5
2.778e+0	9.737e-5
2.779e+0	9.743e-5
2.780e+0	9.752e-5
2.781e+0	9.783e-5
2.782e+0	9.786e-5
2.783e+0	9.798e-5
2.784e+0	9.823e-5
2.785e+0	9.835e-5
2.786e+0	9.847e-5
2.787e+0	9.884e-5
2.788e+0	9.884e-5
2.789e+0	9.896e-5
2.790e+0	9.914e-5
2.791e+0	9.933e-5
2.792e+0	9.966e-5
2.793e+0	9.981e-5
2.794e+0	9.984e-5
2.795e+0	1.003e-4
2.796e+0	1.003e-4
2.797e+0	1.006e-4
2.798e+0	1.008e-4
2.799e+0	1.011e-4
2.800e+0	1.012e-4
2.801e+0	1.014e-4
2.802e+0	1.018e-4
2.803e+0	1.019e-4
2.804e+0	1.022e-4
2.805e+0	1.024e-4
2.806e+0	1.027e-4
2.807e+0	1.030e-4
2.808e+0	1.032e-4
2.809e+0	1.036e-4
2.810e+0	1.038e-4
2.811e+0	1.042e-4
2.812e+0	1.042e-4
2.813e+0	1.047e-4
2.814e+0	1.047e-4
2.815e+0	1.049e-4
2.816e+0	1.052e-4
2.817e+0	1.052e-4
2.818e+0	1.052e-4
2.819e+0	1.052e-4
2.820e+0	1.052e-4
2.821e+0	1.053e-4
2.822e+0	1.054e-4
2.823e+0	1.055e-4
2.824e+0	1.055e-4
2.825e+0	1.055e-4
2.826e+0	1.053e-4
2.827e+0	1.053e-4
2.828e+0	1.052e-4
2.829e+0	1.052e-4
2.830e+0	1.051e-4
2.831e+0	1.051e-4
2.832e+0	1.049e-4
2.833e+0	1.047e-4
2.834e+0	1.047e-4
2.835e+0	1.047e-4
2.836e+0	1.042e-4
2.837e+0	1.042e-4
2.838e+0	1.042e-4
2.839e+0	1.041e-4
2.840e+0	1.038e-4
2.841e+0	1.037e-4
2.842e+0	1.034e-4
2.843e+0	1.033e-4
2.844e+0	1.031e-4
2.845e+0	1.029e-4
2.846e+0	1.028e-4
2.847e+0	1.027e-4
2.848e+0	1.023e-4
2.849e+0	1.023e-4
2.850e+0	1.020e-4
2.851e+0	1.018e-4
2.852e+0	1.017e-4
2.853e+0	1.014e-4
2.854e+0	1.012e-4
2.855e+0	1.011e-4
2.856e+0	1.009e-4
2.857e+0	1.008e-4
2.858e+0	1.005e-4
2.859e+0	1.003e-4
2.860e+0	1.002e-4
2.861e+0	1.000e-4
2.862e+0	9.978e-5
2.863e+0	9.978e-5
2.864e+0	9.951e-5
2.865e+0	9.933e-5
2.866e+0	9.929e-5
2.867e+0	9.905e-5
2.868e+0	9.887e-5
2.869e+0	9.884e-5
2.870e+0	9.862e-5
2.871e+0	9.844e-5
2.872e+0	9.835e-5
2.873e+0	9.832e-5
2.874e+0	9.798e-5
2.875e+0	9.792e-5
2.876e+0	9.783e-5
2.877e+0	9.783e-5
2.878e+0	9.783e-5
2.879e+0	9.755e-5
2.880e+0	9.734e-5
2.881e+0	9.740e-5
2.882e+0	9.734e-5
2.883e+0	9.737e-5
2.884e+0	9.731e-5
2.885e+0	9.728e-5
2.886e+0	9.722e-5
2.887e+0	9.725e-5
2.888e+0	9.716e-5
2.889e+0	9.710e-5
2.890e+0	9.710e-5
2.891e+0	9.719e-5
2.892e+0	9.725e-5
2.893e+0	9.728e-5
2.894e+0	9.734e-5
2.895e+0	9.737e-5
2.896e+0	9.737e-5
2.897e+0	9.740e-5
2.898e+0	9.743e-5
2.899e+0	9.777e-5
2.900e+0	9.780e-5
2.901e+0	9.786e-5
2.902e+0	9.786e-5
2.903e+0	9.816e-5
2.904e+0	9.835e-5
2.905e+0	9.838e-5
2.906e+0	9.856e-5
2.907e+0	9.884e-5
2.908e+0	9.881e-5
2.909e+0	9.914e-5
2.910e+0	9.929e-5
2.911e+0	9.936e-5
2.912e+0	9.957e-5
2.913e+0	9.981e-5
2.914e+0	9.981e-5
2.915e+0	1.003e-4
2.916e+0	1.003e-4
2.917e+0	1.006e-4
2.918e+0	1.008e-4
2.919e+0	1.008e-4
2.920e+0	1.011e-4
2.921e+0	1.013e-4
2.922e+0	1.013e-4
2.923e+0	1.017e-4
2.924e+0	1.017e-4
2.925e+0	1.018e-4
2.926e+0	1.019e-4
2.927e+0	1.022e-4
2.928e+0	1.023e-4
2.929e+0	1.023e-4
2.930e+0	1.025e-4
2.931e+0	1.027e-4
2.932e+0	1.027e-4
2.933e+0	1.028e-4
2.934e+0	1.029e-4
2.935e+0	1.031e-4
2.936e+0	1.032e-4
2.937e+0	1.032e-4
2.938e+0	1.033e-4
2.939e+0	1.034e-4
2.940e+0	1.036e-4
2.941e+0	1.037e-4
2.942e+0	1.037e-4
2.943e+0	1.037e-4
2.944e+0	1.037e-4
2.945e+0	1.038e-4
2.946e+0	1.039e-4
2.947e+0	1.040e-4
2.948e+0	1.041e-4
2.949e+0	1.042e-4
2.950e+0	1.042e-4
2.951e+0	1.042e-4
2.952e+0	1.042e-4
2.953e+0	1.042e-4
2.954e+0	1.042e-4
2.955e+0	1.045e-4
2.956e+0	1.045e-4
2.957e+0	1.045e-4
2.958e+0	1.046e-4
2.959e+0	1.047e-4
2.960e+0	1.047e-4
2.961e+0	1.047e-4
2.962e+0	1.048e-4
2.963e+0	1.047e-4
2.964e+0	1.049e-4
2.965e+0	1.050e-4
2.966e+0	1.051e-4
2.967e+0	1.052e-4
2.968e+0	1.052e-4
2.969e+0	1.054e-4
2.970e+0	1.056e-4
2.971e+0	1.057e-4
2.972e+0	1.057e-4
2.973e+0	1.058e-4
2.974e+0	1.060e-4
2.975e+0	1.062e-4
2.976e+0	1.062e-4
2.977e+0	1.067e-4
2.978e+0	1.067e-4
2.979e+0	1.069e-4
2.980e+0	1.072e-4
2.981e+0	1.076e-4
2.982e+0	1.076e-4
2.983e+0	1.080e-4
2.984e+0	1.081e-4
2.985e+0	1.083e-4
2.986e+0	1.086e-4
2.987e+0	1.088e-4
2.988e+0	1.091e-4
2.989e+0	1.091e-4
2.990e+0	1.094e-4
2.991e+0	1.096e-4
2.992e+0	1.096e-4
2.993e+0	1.099e-4
2.994e+0	1.101e-4
2.995e+0	1.101e-4
2.996e+0	1.102e-4
2.997e+0	1.103e-4
2.998e+0	1.105e-4
2.999e+0	1.106e-4
3.000e+0	1.106e-4
3.001e+0	1.105e-4
3.002e+0	1.106e-4
3.003e+0	1.106e-4
3.004e+0	1.106e-4
3.005e+0	1.106e-4
3.006e+0	1.106e-4
3.007e+0	1.105e-4
3.008e+0	1.105e-4
3.009e+0	1.103e-4
3.010e+0	1.102e-4
3.011e+0	1.101e-4
3.012e+0	1.100e-4
3.013e+0	1.099e-4
3.014e+0	1.096e-4
3.015e+0	1.096e-4
3.016e+0	1.096e-4
3.017e+0	1.094e-4
3.018e+0	1.091e-4
3.019e+0	1.091e-4
3.020e+0	1.090e-4
3.021e+0	1.087e-4
3.022e+0	1.086e-4
3.023e+0	1.085e-4
3.024e+0	1.083e-4
3.025e+0	1.081e-4
3.026e+0	1.080e-4
3.027e+0	1.079e-4
3.028e+0	1.077e-4
3.029e+0	1.076e-4
3.030e+0	1.076e-4
3.031e+0	1.071e-4
3.032e+0	1.070e-4
3.033e+0	1.068e-4
3.034e+0	1.067e-4
3.035e+0	1.065e-4
3.036e+0	1.063e-4
3.037e+0	1.062e-4
3.038e+0	1.061e-4
3.039e+0	1.058e-4
3.040e+0	1.057e-4
3.041e+0	1.057e-4
3.042e+0	1.055e-4
3.043e+0	1.053e-4
3.044e+0	1.052e-4
3.045e+0	1.052e-4
3.046e+0	1.051e-4
3.047e+0	1.049e-4
3.048e+0	1.047e-4
3.049e+0	1.047e-4
3.050e+0	1.047e-4
3.051e+0	1.045e-4
3.052e+0	1.044e-4
3.053e+0	1.042e-4
3.054e+0	1.042e-4
3.055e+0	1.042e-4
3.056e+0	1.042e-4
3.057e+0	1.042e-4
3.058e+0	1.041e-4
3.059e+0	1.041e-4
3.060e+0	1.040e-4
3.061e+0	1.040e-4
3.062e+0	1.042e-4
3.063e+0	1.040e-4
3.064e+0	1.041e-4
3.065e+0	1.042e-4
3.066e+0	1.042e-4
3.067e+0	1.042e-4
3.068e+0	1.042e-4
3.069e+0	1.042e-4
3.070e+0	1.042e-4
3.071e+0	1.043e-4
3.072e+0	1.044e-4
3.073e+0	1.046e-4
3.074e+0	1.046e-4
3.075e+0	1.047e-4
3.076e+0	1.047e-4
3.077e+0	1.048e-4
3.078e+0	1.050e-4
3.079e+0	1.051e-4
3.080e+0	1.052e-4
3.081e+0	1.053e-4
3.082e+0	1.054e-4
3.083e+0	1.057e-4
3.084e+0	1.057e-4
3.085e+0	1.058e-4
3.086e+0	1.062e-4
3.087e+0	1.062e-4
3.088e+0	1.065e-4
3.089e+0	1.067e-4
3.090e+0	1.067e-4
3.091e+0	1.071e-4
3.092e+0	1.073e-4
3.093e+0	1.076e-4
3.094e+0	1.076e-4
3.095e+0	1.078e-4
3.096e+0	1.081e-4
3.097e+0	1.081e-4
3.098e+0	1.082e-4
3.099e+0	1.085e-4
3.100e+0	1.086e-4
3.101e+0	1.086e-4
3.102e+0	1.088e-4
3.103e+0	1.090e-4
3.104e+0	1.091e-4
3.105e+0	1.091e-4
3.106e+0	1.092e-4
3.107e+0	1.093e-4
3.108e+0	1.093e-4
3.109e+0	1.095e-4
3.110e+0	1.096e-4
3.111e+0	1.096e-4
3.112e+0	1.096e-4
3.113e+0	1.096e-4
3.114e+0	1.096e-4
3.115e+0	1.098e-4
3.116e+0	1.099e-4
3.117e+0	1.100e-4
3.118e+0	1.100e-4
3.119e+0	1.100e-4
3.120e+0	1.100e-4
3.121e+0	1.101e-4
3.122e+0	1.101e-4
3.123e+0	1.101e-4
3.124e+0	1.102e-4
3.125e+0	1.103e-4
3.126e+0	1.105e-4
3.127e+0	1.105e-4
3.128e+0	1.106e-4
3.129e+0	1.106e-4
3.130e+0	1.106e-4
3.131e+0	1.106e-4
3.132e+0	1.108e-4
3.133e+0	1.108e-4
3.134e+0	1.110e-4
3.135e+0	1.111e-4
3.136e+0	1.111e-4
3.137e+0	1.113e-4
3.138e+0	1.113e-4
3.139e+0	1.115e-4
3.140e+0	1.115e-4
3.141e+0	1.115e-4
3.142e+0	1.117e-4
3.143e+0	1.120e-4
3.144e+0	1.120e-4
3.145e+0	1.121e-4
3.146e+0	1.125e-4
3.147e+0	1.125e-4
3.148e+0	1.126e-4
3.149e+0	1.129e-4
3.150e+0	1.130e-4
3.151e+0	1.131e-4
3.152e+0	1.135e-4
3.153e+0	1.136e-4
3.154e+0	1.140e-4
3.155e+0	1.142e-4
3.156e+0	1.145e-4
3.157e+0	1.145e-4
3.158e+0	1.149e-4
3.159e+0	1.150e-4
3.160e+0	1.154e-4
3.161e+0	1.155e-4
3.162e+0	1.159e-4
3.163e+0	1.159e-4
3.164e+0	1.160e-4
3.165e+0	1.164e-4
3.166e+0	1.164e-4
3.167e+0	1.165e-4
3.168e+0	1.167e-4
3.169e+0	1.169e-4
3.170e+0	1.169e-4
3.171e+0	1.169e-4
3.172e+0	1.169e-4
3.173e+0	1.169e-4
3.174e+0	1.169e-4
3.175e+0	1.169e-4
3.176e+0	1.169e-4
3.177e+0	1.169e-4
3.178e+0	1.170e-4
3.179e+0	1.169e-4
3.180e+0	1.169e-4
3.181e+0	1.169e-4
3.182e+0	1.169e-4
3.183e+0	1.169e-4
3.184e+0	1.166e-4
3.185e+0	1.165e-4
3.186e+0	1.165e-4
3.187e+0	1.164e-4
3.188e+0	1.163e-4
3.189e+0	1.163e-4
3.190e+0	1.160e-4
3.191e+0	1.159e-4
3.192e+0	1.159e-4
3.193e+0	1.157e-4
3.194e+0	1.155e-4
3.195e+0	1.155e-4
3.196e+0	1.153e-4
3.197e+0	1.150e-4
3.198e+0	1.149e-4
3.199e+0	1.147e-4
3.200e+0	1.145e-4
3.201e+0	1.144e-4
3.202e+0	1.141e-4
3.203e+0	1.140e-4
3.204e+0	1.138e-4
3.205e+0	1.135e-4
3.206e+0	1.135e-4
3.207e+0	1.132e-4
3.208e+0	1.130e-4
3.209e+0	1.129e-4
3.210e+0	1.126e-4
3.211e+0	1.125e-4
3.212e+0	1.122e-4
3.213e+0	1.121e-4
3.214e+0	1.120e-4
3.215e+0	1.116e-4
3.216e+0	1.116e-4
3.217e+0	1.114e-4
3.218e+0	1.111e-4
3.219e+0	1.111e-4
3.220e+0	1.110e-4
3.221e+0	1.107e-4
3.222e+0	1.106e-4
3.223e+0	1.106e-4
3.224e+0	1.103e-4
3.225e+0	1.101e-4
3.226e+0	1.100e-4
3.227e+0	1.100e-4
3.228e+0	1.100e-4
3.229e+0	1.098e-4
3.230e+0	1.096e-4
3.231e+0	1.096e-4
3.232e+0	1.096e-4
3.233e+0	1.096e-4
3.234e+0	1.095e-4
3.235e+0	1.096e-4
3.236e+0	1.094e-4
3.237e+0	1.095e-4
3.238e+0	1.094e-4
3.239e+0	1.094e-4
3.240e+0	1.093e-4
3.241e+0	1.095e-4
3.242e+0	1.093e-4
3.243e+0	1.094e-4
3.244e+0	1.095e-4
3.245e+0	1.096e-4
3.246e+0	1.096e-4
3.247e+0	1.096e-4
3.248e+0	1.096e-4
3.249e+0	1.096e-4
3.250e+0	1.097e-4
3.251e+0	1.098e-4
3.252e+0	1.100e-4
3.253e+0	1.100e-4
3.254e+0	1.101e-4
3.255e+0	1.101e-4
3.256e+0	1.103e-4
3.257e+0	1.104e-4
3.258e+0	1.105e-4
3.259e+0	1.106e-4
3.260e+0	1.105e-4
3.261e+0	1.107e-4
3.262e+0	1.107e-4
3.263e+0	1.109e-4
3.264e+0	1.110e-4
3.265e+0	1.111e-4
3.266e+0	1.111e-4
3.267e+0	1.111e-4
3.268e+0	1.114e-4
3.269e+0	1.115e-4
3.270e+0	1.115e-4
3.271e+0	1.116e-4
3.272e+0	1.117e-4
3.273e+0	1.120e-4
3.274e+0	1.120e-4
3.275e+0	1.120e-4
3.276e+0	1.121e-4
3.277e+0	1.124e-4
3.278e+0	1.125e-4
3.279e+0	1.125e-4
3.280e+0	1.125e-4
3.281e+0	1.126e-4
3.282e+0	1.129e-4
3.283e+0	1.130e-4
3.284e+0	1.130e-4
3.285e+0	1.131e-4
3.286e+0	1.133e-4
3.287e+0	1.135e-4
3.288e+0	1.135e-4
3.289e+0	1.136e-4
3.290e+0	1.137e-4
3.291e+0	1.140e-4
3.292e+0	1.140e-4
3.293e+0	1.141e-4
3.294e+0	1.143e-4
3.295e+0	1.145e-4
3.296e+0	1.145e-4
3.297e+0	1.148e-4
3.298e+0	1.150e-4
3.299e+0	1.150e-4
3.300e+0	1.152e-4
3.301e+0	1.154e-4
3.302e+0	1.155e-4
3.303e+0	1.156e-4
3.304e+0	1.159e-4
3.305e+0	1.159e-4
3.306e+0	1.163e-4
3.307e+0	1.164e-4
3.308e+0	1.166e-4
3.309e+0	1.169e-4
3.310e+0	1.171e-4
3.311e+0	1.174e-4
3.312e+0	1.174e-4
3.313e+0	1.177e-4
3.314e+0	1.179e-4
3.315e+0	1.184e-4
3.316e+0	1.184e-4
3.317e+0	1.188e-4
3.318e+0	1.189e-4
3.319e+0	1.194e-4
3.320e+0	1.194e-4
3.321e+0	1.198e-4
3.322e+0	1.199e-4
3.323e+0	1.203e-4
3.324e+0	1.204e-4
3.325e+0	1.208e-4
3.326e+0	1.210e-4
3.327e+0	1.213e-4
3.328e+0	1.215e-4
3.329e+0	1.217e-4
3.330e+0	1.218e-4
3.331e+0	1.219e-4
3.332e+0	1.222e-4
3.333e+0	1.223e-4
3.334e+0	1.225e-4
3.335e+0	1.227e-4
3.336e+0	1.227e-4
3.337e+0	1.228e-4
3.338e+0	1.227e-4
3.339e+0	1.228e-4
3.340e+0	1.227e-4
3.341e+0	1.228e-4
3.342e+0	1.228e-4
3.343e+0	1.228e-4
3.344e+0	1.227e-4
3.345e+0	1.227e-4
3.346e+0	1.225e-4
3.347e+0	1.223e-4
3.348e+0	1.223e-4
3.349e+0	1.221e-4
3.350e+0	1.220e-4
3.351e+0	1.218e-4
3.352e+0	1.217e-4
3.353e+0	1.216e-4
3.354e+0	1.213e-4
3.355e+0	1.213e-4
3.356e+0	1.213e-4
3.357e+0	1.209e-4
3.358e+0	1.208e-4
3.359e+0	1.206e-4
3.360e+0	1.204e-4
3.361e+0	1.203e-4
3.362e+0	1.201e-4
3.363e+0	1.198e-4
3.364e+0	1.198e-4
3.365e+0	1.194e-4
3.366e+0	1.194e-4
3.367e+0	1.193e-4
3.368e+0	1.189e-4
3.369e+0	1.188e-4
3.370e+0	1.186e-4
3.371e+0	1.184e-4
3.372e+0	1.183e-4
3.373e+0	1.180e-4
3.374e+0	1.178e-4
3.375e+0	1.175e-4
3.376e+0	1.174e-4
3.377e+0	1.173e-4
3.378e+0	1.169e-4
3.379e+0	1.168e-4
3.380e+0	1.165e-4
3.381e+0	1.164e-4
3.382e+0	1.162e-4
3.383e+0	1.159e-4
3.384e+0	1.158e-4
3.385e+0	1.155e-4
3.386e+0	1.154e-4
3.387e+0	1.152e-4
3.388e+0	1.150e-4
3.389e+0	1.150e-4
3.390e+0	1.148e-4
3.391e+0	1.145e-4
3.392e+0	1.144e-4
3.393e+0	1.144e-4
3.394e+0	1.140e-4
3.395e+0	1.140e-4
3.396e+0	1.140e-4
3.397e+0	1.138e-4
3.398e+0	1.136e-4
3.399e+0	1.135e-4
3.400e+0	1.135e-4
3.401e+0	1.135e-4
3.402e+0	1.135e-4
3.403e+0	1.134e-4
3.404e+0	1.134e-4
3.405e+0	1.133e-4
3.406e+0	1.133e-4
3.407e+0	1.134e-4
3.408e+0	1.134e-4
3.409e+0	1.134e-4
3.410e+0	1.134e-4
3.411e+0	1.134e-4
3.412e+0	1.135e-4
3.413e+0	1.135e-4
3.414e+0	1.135e-4
3.415e+0	1.135e-4
3.416e+0	1.135e-4
3.417e+0	1.136e-4
3.418e+0	1.136e-4
3.419e+0	1.136e-4
3.420e+0	1.137e-4
3.421e+0	1.139e-4
3.422e+0	1.140e-4
3.423e+0	1.140e-4
3.424e+0	1.140e-4
3.425e+0	1.140e-4
3.426e+0	1.142e-4
3.427e+0	1.144e-4
3.428e+0	1.144e-4
3.429e+0	1.145e-4
3.430e+0	1.145e-4
3.431e+0	1.148e-4
3.432e+0	1.150e-4
3.433e+0	1.150e-4
3.434e+0	1.151e-4
3.435e+0	1.153e-4
3.436e+0	1.154e-4
3.437e+0	1.155e-4
3.438e+0	1.155e-4
3.439e+0	1.157e-4
3.440e+0	1.159e-4
3.441e+0	1.159e-4
3.442e+0	1.160e-4
3.443e+0	1.162e-4
3.444e+0	1.164e-4
3.445e+0	1.164e-4
3.446e+0	1.166e-4
3.447e+0	1.169e-4
3.448e+0	1.169e-4
3.449e+0	1.170e-4
3.450e+0	1.171e-4
3.451e+0	1.173e-4
3.452e+0	1.174e-4
3.453e+0	1.174e-4
3.454e+0	1.175e-4
3.455e+0	1.177e-4
3.456e+0	1.178e-4
3.457e+0	1.179e-4
3.458e+0	1.179e-4
3.459e+0	1.180e-4
3.460e+0	1.181e-4
3.461e+0	1.183e-4
3.462e+0	1.184e-4
3.463e+0	1.184e-4
3.464e+0	1.184e-4
3.465e+0	1.185e-4
3.466e+0	1.187e-4
3.467e+0	1.189e-4
3.468e+0	1.188e-4
3.469e+0	1.189e-4
3.470e+0	1.189e-4
3.471e+0	1.191e-4
3.472e+0	1.193e-4
3.473e+0	1.194e-4
3.474e+0	1.194e-4
3.475e+0	1.195e-4
3.476e+0	1.197e-4
3.477e+0	1.198e-4
3.478e+0	1.198e-4
3.479e+0	1.199e-4
3.480e+0	1.202e-4
3.481e+0	1.203e-4
3.482e+0	1.203e-4
3.483e+0	1.208e-4
3.484e+0	1.208e-4
3.485e+0	1.209e-4
3.486e+0	1.212e-4
3.487e+0	1.213e-4
3.488e+0	1.215e-4
3.489e+0	1.218e-4
3.490e+0	1.219e-4
3.491e+0	1.223e-4
3.492e+0	1.224e-4
3.493e+0	1.227e-4
3.494e+0	1.228e-4
3.495e+0	1.229e-4
3.496e+0	1.233e-4
3.497e+0	1.233e-4
3.498e+0	1.233e-4
3.499e+0	1.235e-4
3.500e+0	1.238e-4
3.501e+0	1.238e-4
3.502e+0	1.238e-4
3.503e+0	1.238e-4
3.504e+0	1.238e-4
3.505e+0	1.239e-4
3.506e+0	1.239e-4
3.507e+0	1.238e-4
3.508e+0	1.238e-4
3.509e+0	1.238e-4
3.510e+0	1.238e-4
3.511e+0	1.237e-4
3.512e+0	1.238e-4
3.513e+0	1.238e-4
3.514e+0	1.237e-4
3.515e+0	1.233e-4
3.516e+0	1.233e-4
3.517e+0	1.233e-4
3.518e+0	1.232e-4
3.519e+0	1.230e-4
3.520e+0	1.228e-4
3.521e+0	1.227e-4
3.522e+0	1.225e-4
3.523e+0	1.223e-4
3.524e+0	1.222e-4
3.525e+0	1.218e-4
3.526e+0	1.217e-4
3.527e+0	1.214e-4
3.528e+0	1.213e-4
3.529e+0	1.211e-4
3.530e+0	1.208e-4
3.531e+0	1.208e-4
3.532e+0	1.204e-4
3.533e+0	1.203e-4
3.534e+0	1.201e-4
3.535e+0	1.198e-4
3.536e+0	1.197e-4
3.537e+0	1.194e-4
3.538e+0	1.193e-4
3.539e+0	1.189e-4
3.540e+0	1.189e-4
3.541e+0	1.186e-4
3.542e+0	1.184e-4
3.543e+0	1.182e-4
3.544e+0	1.179e-4
3.545e+0	1.179e-4
3.546e+0	1.176e-4
3.547e+0	1.174e-4
3.548e+0	1.173e-4
3.549e+0	1.169e-4
3.550e+0	1.169e-4
3.551e+0	1.165e-4
3.552e+0	1.165e-4
3.553e+0	1.163e-4
3.554e+0	1.162e-4
3.555e+0	1.160e-4
3.556e+0	1.159e-4
3.557e+0	1.157e-4
3.558e+0	1.155e-4
3.559e+0	1.154e-4
3.560e+0	1.153e-4
3.561e+0	1.152e-4
3.562e+0	1.151e-4
3.563e+0	1.150e-4
3.564e+0	1.150e-4
3.565e+0	1.149e-4
3.566e+0	1.149e-4
3.567e+0	1.147e-4
3.568e+0	1.146e-4
3.569e+0	1.146e-4
3.570e+0	1.145e-4
3.571e+0	1.145e-4
3.572e+0	1.146e-4
3.573e+0	1.146e-4
3.574e+0	1.147e-4
3.575e+0	1.147e-4
3.576e+0	1.148e-4
3.577e+0	1.149e-4
3.578e+0	1.150e-4
3.579e+0	1.150e-4
3.580e+0	1.150e-4
3.581e+0	1.150e-4
3.582e+0	1.152e-4
3.583e+0	1.154e-4
3.584e+0	1.155e-4
3.585e+0	1.155e-4
3.586e+0	1.158e-4
3.587e+0	1.159e-4
3.588e+0	1.160e-4
3.589e+0	1.163e-4
3.590e+0	1.164e-4
3.591e+0	1.166e-4
3.592e+0	1.169e-4
3.593e+0	1.169e-4
3.594e+0	1.173e-4
3.595e+0	1.174e-4
3.596e+0	1.176e-4
3.597e+0	1.178e-4
3.598e+0	1.180e-4
3.599e+0	1.184e-4
3.600e+0	1.184e-4
3.601e+0	1.188e-4
3.602e+0	1.189e-4
3.603e+0	1.190e-4
3.604e+0	1.194e-4
3.605e+0	1.195e-4
3.606e+0	1.198e-4
3.607e+0	1.198e-4
3.608e+0	1.199e-4
3.609e+0	1.202e-4
3.610e+0	1.203e-4
3.611e+0	1.206e-4
3.612e+0	1.208e-4
3.613e+0	1.208e-4
3.614e+0	1.211e-4
3.615e+0	1.213e-4
3.616e+0	1.213e-4
3.617e+0	1.214e-4
3.618e+0	1.216e-4
3.619e+0	1.218e-4
3.620e+0	1.218e-4
3.621e+0	1.218e-4
3.622e+0	1.218e-4
3.623e+0	1.219e-4
3.624e+0	1.220e-4
3.625e+0	1.219e-4
3.626e+0	1.219e-4
3.627e+0	1.220e-4
3.628e+0	1.220e-4
3.629e+0	1.220e-4
3.630e+0	1.220e-4
3.631e+0	1.219e-4
3.632e+0	1.218e-4
3.633e+0	1.218e-4
3.634e+0	1.218e-4
3.635e+0	1.219e-4
3.636e+0	1.218e-4
3.637e+0	1.218e-4
3.638e+0	1.219e-4
3.639e+0	1.218e-4
3.640e+0	1.218e-4
3.641e+0	1.218e-4
3.642e+0	1.218e-4
3.643e+0	1.218e-4
3.644e+0	1.218e-4
3.645e+0	1.219e-4
3.646e+0	1.218e-4
3.647e+0	1.218e-4
3.648e+0	1.220e-4
3.649e+0	1.221e-4
3.650e+0	1.222e-4
3.651e+0	1.223e-4
3.652e+0	1.224e-4
3.653e+0	1.226e-4
3.654e+0	1.227e-4
3.655e+0	1.228e-4
3.656e+0	1.228e-4
3.657e+0	1.230e-4
3.658e+0	1.231e-4
3.659e+0	1.233e-4
3.660e+0	1.233e-4
3.661e+0	1.234e-4
3.662e+0	1.236e-4
3.663e+0	1.237e-4
3.664e+0	1.237e-4
3.665e+0	1.238e-4
3.666e+0	1.238e-4
3.667e+0	1.238e-4
3.668e+0	1.241e-4
3.669e+0	1.241e-4
3.670e+0	1.241e-4
3.671e+0	1.241e-4
3.672e+0	1.242e-4
3.673e+0	1.241e-4
3.674e+0	1.239e-4
3.675e+0	1.239e-4
3.676e+0	1.238e-4
3.677e+0	1.238e-4
3.678e+0	1.238e-4
3.679e+0	1.237e-4
3.680e+0	1.237e-4
3.681e+0	1.234e-4
3.682e+0	1.233e-4
3.683e+0	1.233e-4
3.684e+0	1.232e-4
3.685e+0	1.229e-4
3.686e+0	1.228e-4
3.687e+0	1.226e-4
3.688e+0	1.223e-4
3.689e+0	1.221e-4
3.690e+0	1.218e-4
3.691e+0	1.217e-4
3.692e+0	1.213e-4
3.693e+0	1.213e-4
3.694e+0	1.210e-4
3.695e+0	1.208e-4
3.696e+0	1.207e-4
3.697e+0	1.204e-4
3.698e+0	1.203e-4
3.699e+0	1.199e-4
3.700e+0	1.198e-4
3.701e+0	1.194e-4
3.702e+0	1.193e-4
3.703e+0	1.190e-4
3.704e+0	1.188e-4
3.705e+0	1.185e-4
3.706e+0	1.184e-4
3.707e+0	1.181e-4
3.708e+0	1.179e-4
3.709e+0	1.177e-4
3.710e+0	1.174e-4
3.711e+0	1.172e-4
3.712e+0	1.169e-4
3.713e+0	1.169e-4
3.714e+0	1.166e-4
3.715e+0	1.164e-4
3.716e+0	1.163e-4
3.717e+0	1.160e-4
3.718e+0	1.159e-4
3.719e+0	1.156e-4
3.720e+0	1.155e-4
3.721e+0	1.154e-4
3.722e+0	1.152e-4
3.723e+0	1.150e-4
3.724e+0	1.150e-4
3.725e+0	1.150e-4
3.726e+0	1.147e-4
3.727e+0	1.146e-4
3.728e+0	1.145e-4
3.729e+0	1.145e-4
3.730e+0	1.144e-4
3.731e+0	1.144e-4
3.732e+0	1.144e-4
3.733e+0	1.144e-4
3.734e+0	1.143e-4
3.735e+0	1.144e-4
3.736e+0	1.142e-4
3.737e+0	1.144e-4
3.738e+0	1.144e-4
3.739e+0	1.144e-4
3.740e+0	1.144e-4
3.741e+0	1.145e-4
3.742e+0	1.144e-4
3.743e+0	1.145e-4
3.744e+0	1.146e-4
3.745e+0	1.147e-4
3.746e+0	1.149e-4
3.747e+0	1.150e-4
3.748e+0	1.150e-4
3.749e+0	1.153e-4
3.750e+0	1.154e-4
3.751e+0	1.155e-4
3.752e+0	1.157e-4
3.753e+0	1.159e-4
3.754e+0	1.160e-4
3.755e+0	1.162e-4
3.756e+0	1.164e-4
3.757e+0	1.168e-4
3.758e+0	1.169e-4
3.759e+0	1.170e-4
3.760e+0	1.174e-4
3.761e+0	1.176e-4
3.762e+0	1.179e-4
3.763e+0	1.181e-4
3.764e+0	1.184e-4
3.765e+0	1.188e-4
3.766e+0	1.189e-4
3.767e+0	1.194e-4
3.768e+0	1.195e-4
3.769e+0	1.198e-4
3.770e+0	1.203e-4
3.771e+0	1.203e-4
3.772e+0	1.208e-4
3.773e+0	1.210e-4
3.774e+0	1.213e-4
3.775e+0	1.216e-4
3.776e+0	1.218e-4
3.777e+0	1.222e-4
3.778e+0	1.227e-4
3.779e+0	1.230e-4
3.780e+0	1.232e-4
3.781e+0	1.236e-4
3.782e+0	1.238e-4
3.783e+0	1.242e-4
3.784e+0	1.245e-4
3.785e+0	1.248e-4
3.786e+0	1.252e-4
3.787e+0	1.253e-4
3.788e+0	1.256e-4
3.789e+0	1.258e-4
3.790e+0	1.261e-4
3.791e+0	1.262e-4
3.792e+0	1.264e-4
3.793e+0	1.267e-4
3.794e+0	1.267e-4
3.795e+0	1.270e-4
3.796e+0	1.271e-4
3.797e+0	1.272e-4
3.798e+0	1.272e-4
3.799e+0	1.277e-4
3.800e+0	1.276e-4
3.801e+0	1.277e-4
3.802e+0	1.277e-4
3.803e+0	1.278e-4
3.804e+0	1.279e-4
3.805e+0	1.281e-4
3.806e+0	1.282e-4
3.807e+0	1.282e-4
3.808e+0	1.282e-4
3.809e+0	1.282e-4
3.810e+0	1.282e-4
3.811e+0	1.282e-4
3.812e+0	1.282e-4
3.813e+0	1.282e-4
3.814e+0	1.282e-4
3.815e+0	1.282e-4
3.816e+0	1.282e-4
3.817e+0	1.282e-4
3.818e+0	1.282e-4
3.819e+0	1.282e-4
3.820e+0	1.281e-4
3.821e+0	1.281e-4
3.822e+0	1.281e-4
3.823e+0	1.281e-4
3.824e+0	1.280e-4
3.825e+0	1.278e-4
3.826e+0	1.278e-4
3.827e+0	1.277e-4
3.828e+0	1.277e-4
3.829e+0	1.277e-4
3.830e+0	1.276e-4
3.831e+0	1.275e-4
3.832e+0	1.273e-4
3.833e+0	1.272e-4
3.834e+0	1.271e-4
3.835e+0	1.267e-4
3.836e+0	1.267e-4
3.837e+0	1.265e-4
3.838e+0	1.262e-4
3.839e+0	1.261e-4
3.840e+0	1.257e-4
3.841e+0	1.256e-4
3.842e+0	1.252e-4
3.843e+0	1.251e-4
3.844e+0	1.248e-4
3.845e+0	1.245e-4
3.846e+0	1.242e-4
3.847e+0	1.238e-4
3.848e+0	1.237e-4
3.849e+0	1.233e-4
3.850e+0	1.231e-4
3.851e+0	1.228e-4
3.852e+0	1.225e-4
3.853e+0	1.221e-4
3.854e+0	1.218e-4
3.855e+0	1.214e-4
3.856e+0	1.213e-4
3.857e+0	1.209e-4
3.858e+0	1.207e-4
3.859e+0	1.203e-4
3.860e+0	1.203e-4
3.861e+0	1.198e-4
3.862e+0	1.197e-4
3.863e+0	1.194e-4
3.864e+0	1.192e-4
3.865e+0	1.189e-4
3.866e+0	1.188e-4
3.867e+0	1.184e-4
3.868e+0	1.184e-4
3.869e+0	1.181e-4
3.870e+0	1.179e-4
3.871e+0	1.177e-4
3.872e+0	1.174e-4
3.873e+0	1.174e-4
3.874e+0	1.174e-4
3.875e+0	1.170e-4
3.876e+0	1.169e-4
3.877e+0	1.169e-4
3.878e+0	1.169e-4
3.879e+0	1.166e-4
3.880e+0	1.164e-4
3.881e+0	1.164e-4
3.882e+0	1.163e-4
3.883e+0	1.161e-4
3.884e+0	1.160e-4
3.885e+0	1.160e-4
3.886e+0	1.159e-4
3.887e+0	1.159e-4
3.888e+0	1.158e-4
3.889e+0	1.159e-4
3.890e+0	1.156e-4
3.891e+0	1.156e-4
3.892e+0	1.155e-4
3.893e+0	1.155e-4
3.894e+0	1.155e-4
3.895e+0	1.155e-4
3.896e+0	1.155e-4
3.897e+0	1.155e-4
3.898e+0	1.154e-4
3.899e+0	1.155e-4
3.900e+0	1.154e-4
3.901e+0	1.155e-4
3.902e+0	1.154e-4
3.903e+0	1.155e-4
3.904e+0	1.155e-4
3.905e+0	1.155e-4
3.906e+0	1.155e-4
3.907e+0	1.155e-4
3.908e+0	1.155e-4
3.909e+0	1.155e-4
3.910e+0	1.155e-4
3.911e+0	1.156e-4
3.912e+0	1.158e-4
3.913e+0	1.158e-4
3.914e+0	1.159e-4
3.915e+0	1.159e-4
3.916e+0	1.159e-4
3.917e+0	1.160e-4
3.918e+0	1.162e-4
3.919e+0	1.164e-4
3.920e+0	1.164e-4
3.921e+0	1.165e-4
3.922e+0	1.167e-4
3.923e+0	1.169e-4
3.924e+0	1.169e-4
3.925e+0	1.170e-4
3.926e+0	1.173e-4
3.927e+0	1.174e-4
3.928e+0	1.174e-4
3.929e+0	1.177e-4
3.930e+0	1.179e-4
3.931e+0	1.179e-4
3.932e+0	1.181e-4
3.933e+0	1.184e-4
3.934e+0	1.184e-4
3.935e+0	1.184e-4
3.936e+0	1.188e-4
3.937e+0	1.188e-4
3.938e+0	1.190e-4
3.939e+0	1.193e-4
3.940e+0	1.193e-4
3.941e+0	1.194e-4
3.942e+0	1.197e-4
3.943e+0	1.198e-4
3.944e+0	1.199e-4
3.945e+0	1.202e-4
3.946e+0	1.203e-4
3.947e+0	1.204e-4
3.948e+0	1.207e-4
3.949e+0	1.209e-4
3.950e+0	1.213e-4
3.951e+0	1.213e-4
3.952e+0	1.213e-4
3.953e+0	1.217e-4
3.954e+0	1.218e-4
3.955e+0	1.220e-4
3.956e+0	1.223e-4
3.957e+0	1.226e-4
3.958e+0	1.228e-4
3.959e+0	1.228e-4
3.960e+0	1.232e-4
3.961e+0	1.233e-4
3.962e+0	1.235e-4
3.963e+0	1.238e-4
3.964e+0	1.238e-4
3.965e+0	1.241e-4
3.966e+0	1.242e-4
3.967e+0	1.247e-4
3.968e+0	1.247e-4
3.969e+0	1.250e-4
3.970e+0	1.252e-4
3.971e+0	1.253e-4
3.972e+0	1.256e-4
3.973e+0	1.257e-4
3.974e+0	1.260e-4
3.975e+0	1.262e-4
3.976e+0	1.264e-4
3.977e+0	1.266e-4
3.978e+0	1.267e-4
3.979e+0	1.270e-4
3.980e+0	1.271e-4
3.981e+0	1.272e-4
3.982e+0	1.275e-4
3.983e+0	1.277e-4
3.984e+0	1.277e-4
3.985e+0	1.278e-4
3.986e+0	1.281e-4
3.987e+0	1.282e-4
3.988e+0	1.282e-4
3.989e+0	1.285e-4
3.990e+0	1.286e-4
3.991e+0	1.286e-4
3.992e+0	1.286e-4
3.993e+0	1.287e-4
3.994e+0	1.288e-4
3.995e+0	1.288e-4
3.996e+0	1.288e-4
3.997e+0	1.288e-4
3.998e+0	1.286e-4
3.999e+0	1.286e-4
4.000e+0	1.286e-4
4.001e+0	1.286e-4
4.002e+0	1.286e-4
4.003e+0	1.283e-4
4.004e+0	1.282e-4
4.005e+0	1.282e-4
4.006e+0	1.282e-4
4.007e+0	1.281e-4
4.008e+0	1.279e-4
4.009e+0	1.277e-4
4.010e+0	1.277e-4
4.011e+0	1.275e-4
4.012e+0	1.272e-4
4.013e+0	1.272e-4
4.014e+0	1.271e-4
4.015e+0	1.267e-4
4.016e+0	1.267e-4
4.017e+0	1.265e-4
4.018e+0	1.262e-4
4.019e+0	1.261e-4
4.020e+0	1.258e-4
4.021e+0	1.257e-4
4.022e+0	1.254e-4
4.023e+0	1.252e-4
4.024e+0	1.249e-4
4.025e+0	1.247e-4
4.026e+0	1.246e-4
4.027e+0	1.242e-4
4.028e+0	1.241e-4
4.029e+0	1.238e-4
4.030e+0	1.235e-4
4.031e+0	1.233e-4
4.032e+0	1.230e-4
4.033e+0	1.228e-4
4.034e+0	1.227e-4
4.035e+0	1.222e-4
4.036e+0	1.219e-4
4.037e+0	1.217e-4
4.038e+0	1.214e-4
4.039e+0	1.213e-4
4.040e+0	1.210e-4
4.041e+0	1.208e-4
4.042e+0	1.207e-4
4.043e+0	1.203e-4
4.044e+0	1.202e-4
4.045e+0	1.199e-4
4.046e+0	1.198e-4
4.047e+0	1.198e-4
4.048e+0	1.194e-4
4.049e+0	1.194e-4
4.050e+0	1.192e-4
4.051e+0	1.190e-4
4.052e+0	1.189e-4
4.053e+0	1.188e-4
4.054e+0	1.186e-4
4.055e+0	1.184e-4
4.056e+0	1.184e-4
4.057e+0	1.184e-4
4.058e+0	1.184e-4
4.059e+0	1.183e-4
4.060e+0	1.183e-4
4.061e+0	1.182e-4
4.062e+0	1.182e-4
4.063e+0	1.182e-4
4.064e+0	1.182e-4
4.065e+0	1.183e-4
4.066e+0	1.184e-4
4.067e+0	1.184e-4
4.068e+0	1.184e-4
4.069e+0	1.184e-4
4.070e+0	1.185e-4
4.071e+0	1.186e-4
4.072e+0	1.189e-4
4.073e+0	1.189e-4
4.074e+0	1.191e-4
4.075e+0	1.193e-4
4.076e+0	1.194e-4
4.077e+0	1.196e-4
4.078e+0	1.198e-4
4.079e+0	1.198e-4
4.080e+0	1.198e-4
4.081e+0	1.201e-4
4.082e+0	1.202e-4
4.083e+0	1.203e-4
4.084e+0	1.205e-4
4.085e+0	1.207e-4
4.086e+0	1.208e-4
4.087e+0	1.209e-4
4.088e+0	1.210e-4
4.089e+0	1.212e-4
4.090e+0	1.213e-4
4.091e+0	1.213e-4
4.092e+0	1.214e-4
4.093e+0	1.217e-4
4.094e+0	1.216e-4
4.095e+0	1.218e-4
4.096e+0	1.218e-4
4.097e+0	1.218e-4
4.098e+0	1.218e-4
4.099e+0	1.219e-4
4.100e+0	1.219e-4
4.101e+0	1.220e-4
4.102e+0	1.218e-4
4.103e+0	1.219e-4
4.104e+0	1.219e-4
4.105e+0	1.219e-4
4.106e+0	1.218e-4
4.107e+0	1.219e-4
4.108e+0	1.218e-4
4.109e+0	1.218e-4
4.110e+0	1.218e-4
4.111e+0	1.218e-4
4.112e+0	1.218e-4
4.113e+0	1.218e-4
4.114e+0	1.218e-4
4.115e+0	1.218e-4
4.116e+0	1.218e-4
4.117e+0	1.218e-4
4.118e+0	1.218e-4
4.119e+0	1.218e-4
4.120e+0	1.218e-4
4.121e+0	1.218e-4
4.122e+0	1.217e-4
4.123e+0	1.218e-4
4.124e+0	1.218e-4
4.125e+0	1.218e-4
4.126e+0	1.218e-4
4.127e+0	1.217e-4
4.128e+0	1.218e-4
4.129e+0	1.218e-4
4.130e+0	1.218e-4
4.131e+0	1.218e-4
4.132e+0	1.218e-4
4.133e+0	1.218e-4
4.134e+0	1.218e-4
4.135e+0	1.218e-4
4.136e+0	1.218e-4
4.137e+0	1.218e-4
4.138e+0	1.218e-4
4.139e+0	1.218e-4
4.140e+0	1.218e-4
4.141e+0	1.218e-4
4.142e+0	1.218e-4
4.143e+0	1.218e-4
4.144e+0	1.218e-4
4.145e+0	1.218e-4
4.146e+0	1.218e-4
4.147e+0	1.218e-4
4.148e+0	1.218e-4
4.149e+0	1.217e-4
4.150e+0	1.217e-4
4.151e+0	1.217e-4
4.152e+0	1.217e-4
4.153e+0	1.217e-4
4.154e+0	1.217e-4
4.155e+0	1.218e-4
4.156e+0	1.218e-4
4.157e+0	1.217e-4
4.158e+0	1.218e-4
4.159e+0	1.218e-4
4.160e+0	1.218e-4
4.161e+0	1.218e-4
4.162e+0	1.218e-4
4.163e+0	1.218e-4
4.164e+0	1.218e-4
4.165e+0	1.218e-4
4.166e+0	1.218e-4
4.167e+0	1.218e-4
4.168e+0	1.218e-4
4.169e+0	1.218e-4
4.170e+0	1.218e-4
4.171e+0	1.218e-4
4.172e+0	1.217e-4
4.173e+0	1.217e-4
4.174e+0	1.216e-4
4.175e+0	1.215e-4
4.176e+0	1.214e-4
4.177e+0	1.213e-4
4.178e+0	1.213e-4
4.179e+0	1.213e-4
4.180e+0	1.213e-4
4.181e+0	1.210e-4
4.182e+0	1.209e-4
4.183e+0	1.209e-4
4.184e+0	1.208e-4
4.185e+0	1.208e-4
4.186e+0	1.207e-4
4.187e+0	1.206e-4
4.188e+0	1.204e-4
4.189e+0	1.204e-4
4.190e+0	1.203e-4
4.191e+0	1.203e-4
4.192e+0	1.201e-4
4.193e+0	1.200e-4
4.194e+0	1.198e-4
4.195e+0	1.198e-4
4.196e+0	1.198e-4
4.197e+0	1.197e-4
4.198e+0	1.195e-4
4.199e+0	1.194e-4
4.200e+0	1.194e-4
4.201e+0	1.194e-4
4.202e+0	1.193e-4
4.203e+0	1.191e-4
4.204e+0	1.190e-4
4.205e+0	1.189e-4
4.206e+0	1.189e-4
4.207e+0	1.189e-4
4.208e+0	1.189e-4
4.209e+0	1.188e-4
4.210e+0	1.188e-4
4.211e+0	1.186e-4
4.212e+0	1.186e-4
4.213e+0	1.184e-4
4.214e+0	1.184e-4
4.215e+0	1.184e-4
4.216e+0	1.184e-4
4.217e+0	1.184e-4
4.218e+0	1.184e-4
4.219e+0	1.183e-4
4.220e+0	1.184e-4
4.221e+0	1.182e-4
4.222e+0	1.183e-4
4.223e+0	1.183e-4
4.224e+0	1.183e-4
4.225e+0	1.182e-4
4.226e+0	1.181e-4
4.227e+0	1.181e-4
4.228e+0	1.182e-4
4.229e+0	1.182e-4
4.230e+0	1.182e-4
4.231e+0	1.183e-4
4.232e+0	1.183e-4
4.233e+0	1.183e-4
4.234e+0	1.183e-4
4.235e+0	1.184e-4
4.236e+0	1.183e-4
4.237e+0	1.184e-4
4.238e+0	1.184e-4
4.239e+0	1.184e-4
4.240e+0	1.184e-4
4.241e+0	1.184e-4
4.242e+0	1.184e-4
4.243e+0	1.185e-4
4.244e+0	1.187e-4
4.245e+0	1.188e-4
4.246e+0	1.188e-4
4.247e+0	1.189e-4
4.248e+0	1.188e-4
4.249e+0	1.191e-4
4.250e+0	1.191e-4
4.251e+0	1.193e-4
4.252e+0	1.194e-4
4.253e+0	1.194e-4
4.254e+0	1.195e-4
4.255e+0	1.198e-4
4.256e+0	1.198e-4
4.257e+0	1.198e-4
4.258e+0	1.199e-4
4.259e+0	1.201e-4
4.260e+0	1.203e-4
4.261e+0	1.203e-4
4.262e+0	1.204e-4
4.263e+0	1.207e-4
4.264e+0	1.208e-4
4.265e+0	1.208e-4
4.266e+0	1.209e-4
4.267e+0	1.213e-4
4.268e+0	1.214e-4
4.269e+0	1.216e-4
4.270e+0	1.218e-4
4.271e+0	1.218e-4
4.272e+0	1.222e-4
4.273e+0	1.223e-4
4.274e+0	1.227e-4
4.275e+0	1.228e-4
4.276e+0	1.230e-4
4.277e+0	1.233e-4
4.278e+0	1.233e-4
4.279e+0	1.236e-4
4.280e+0	1.237e-4
4.281e+0	1.238e-4
4.282e+0	1.241e-4
4.283e+0	1.242e-4
4.284e+0	1.242e-4
4.285e+0	1.245e-4
4.286e+0	1.247e-4
4.287e+0	1.247e-4
4.288e+0	1.247e-4
4.289e+0	1.249e-4
4.290e+0	1.252e-4
4.291e+0	1.252e-4
4.292e+0	1.253e-4
4.293e+0	1.253e-4
4.294e+0	1.255e-4
4.295e+0	1.257e-4
4.296e+0	1.257e-4
4.297e+0	1.258e-4
4.298e+0	1.259e-4
4.299e+0	1.260e-4
4.300e+0	1.262e-4
4.301e+0	1.262e-4
4.302e+0	1.262e-4
4.303e+0	1.262e-4
4.304e+0	1.262e-4
4.305e+0	1.263e-4
4.306e+0	1.265e-4
4.307e+0	1.265e-4
4.308e+0	1.266e-4
4.309e+0	1.266e-4
4.310e+0	1.267e-4
4.311e+0	1.267e-4
4.312e+0	1.267e-4
4.313e+0	1.267e-4
4.314e+0	1.267e-4
4.315e+0	1.267e-4
4.316e+0	1.268e-4
4.317e+0	1.268e-4
4.318e+0	1.270e-4
4.319e+0	1.270e-4
4.320e+0	1.270e-4
4.321e+0	1.271e-4
4.322e+0	1.270e-4
4.323e+0	1.272e-4
4.324e+0	1.271e-4
4.325e+0	1.270e-4
4.326e+0	1.270e-4
4.327e+0	1.270e-4
4.328e+0	1.271e-4
4.329e+0	1.270e-4
4.330e+0	1.268e-4
4.331e+0	1.269e-4
4.332e+0	1.268e-4
4.333e+0	1.267e-4
4.334e+0	1.267e-4
4.335e+0	1.267e-4
4.336e+0	1.267e-4
4.337e+0	1.266e-4
4.338e+0	1.263e-4
4.339e+0	1.262e-4
4.340e+0	1.262e-4
4.341e+0	1.262e-4
4.342e+0	1.258e-4
4.343e+0	1.257e-4
4.344e+0	1.257e-4
4.345e+0	1.253e-4
4.346e+0	1.252e-4
4.347e+0	1.252e-4
4.348e+0	1.248e-4
4.349e+0	1.247e-4
4.350e+0	1.245e-4
4.351e+0	1.242e-4
4.352e+0	1.240e-4
4.353e+0	1.238e-4
4.354e+0	1.237e-4
4.355e+0	1.233e-4
4.356e+0	1.232e-4
4.357e+0	1.230e-4
4.358e+0	1.227e-4
4.359e+0	1.225e-4
4.360e+0	1.223e-4
4.361e+0	1.219e-4
4.362e+0	1.218e-4
4.363e+0	1.215e-4
4.364e+0	1.213e-4
4.365e+0	1.213e-4
4.366e+0	1.210e-4
4.367e+0	1.208e-4
4.368e+0	1.207e-4
4.369e+0	1.206e-4
4.370e+0	1.203e-4
4.371e+0	1.203e-4
4.372e+0	1.202e-4
4.373e+0	1.200e-4
4.374e+0	1.198e-4
4.375e+0	1.198e-4
4.376e+0	1.198e-4
4.377e+0	1.198e-4
4.378e+0	1.197e-4
4.379e+0	1.197e-4
4.380e+0	1.197e-4
4.381e+0	1.195e-4
4.382e+0	1.195e-4
4.383e+0	1.197e-4
4.384e+0	1.197e-4
4.385e+0	1.198e-4
4.386e+0	1.198e-4
4.387e+0	1.198e-4
4.388e+0	1.198e-4
4.389e+0	1.198e-4
4.390e+0	1.199e-4
4.391e+0	1.201e-4
4.392e+0	1.202e-4
4.393e+0	1.203e-4
4.394e+0	1.203e-4
4.395e+0	1.203e-4
4.396e+0	1.205e-4
4.397e+0	1.207e-4
4.398e+0	1.208e-4
4.399e+0	1.209e-4
4.400e+0	1.210e-4
4.401e+0	1.212e-4
4.402e+0	1.213e-4
4.403e+0	1.214e-4
4.404e+0	1.215e-4
4.405e+0	1.217e-4
4.406e+0	1.218e-4
4.407e+0	1.219e-4
4.408e+0	1.222e-4
4.409e+0	1.223e-4
4.410e+0	1.225e-4
4.411e+0	1.228e-4
4.412e+0	1.228e-4
4.413e+0	1.229e-4
4.414e+0	1.232e-4
4.415e+0	1.233e-4
4.416e+0	1.235e-4
4.417e+0	1.238e-4
4.418e+0	1.238e-4
4.419e+0	1.242e-4
4.420e+0	1.242e-4
4.421e+0	1.246e-4
4.422e+0	1.247e-4
4.423e+0	1.248e-4
4.424e+0	1.252e-4
4.425e+0	1.253e-4
4.426e+0	1.255e-4
4.427e+0	1.257e-4
4.428e+0	1.260e-4
4.429e+0	1.262e-4
4.430e+0	1.263e-4
4.431e+0	1.267e-4
4.432e+0	1.267e-4
4.433e+0	1.271e-4
4.434e+0	1.272e-4
4.435e+0	1.275e-4
4.436e+0	1.276e-4
4.437e+0	1.278e-4
4.438e+0	1.281e-4
4.439e+0	1.282e-4
4.440e+0	1.282e-4
4.441e+0	1.286e-4
4.442e+0	1.286e-4
4.443e+0	1.287e-4
4.444e+0	1.289e-4
4.445e+0	1.291e-4
4.446e+0	1.291e-4
4.447e+0	1.294e-4
4.448e+0	1.296e-4
4.449e+0	1.296e-4
4.450e+0	1.296e-4
4.451e+0	1.298e-4
4.452e+0	1.299e-4
4.453e+0	1.301e-4
4.454e+0	1.301e-4
4.455e+0	1.301e-4
4.456e+0	1.303e-4
4.457e+0	1.303e-4
4.458e+0	1.304e-4
4.459e+0	1.304e-4
4.460e+0	1.305e-4
4.461e+0	1.305e-4
4.462e+0	1.306e-4
4.463e+0	1.305e-4
4.464e+0	1.306e-4
4.465e+0	1.306e-4
4.466e+0	1.306e-4
4.467e+0	1.306e-4
4.468e+0	1.306e-4
4.469e+0	1.306e-4
4.470e+0	1.306e-4
4.471e+0	1.306e-4
4.472e+0	1.306e-4
4.473e+0	1.308e-4
4.474e+0	1.308e-4
4.475e+0	1.308e-4
4.476e+0	1.308e-4
4.477e+0	1.310e-4
4.478e+0	1.310e-4
4.479e+0	1.311e-4
4.480e+0	1.311e-4
4.481e+0	1.311e-4
4.482e+0	1.311e-4
4.483e+0	1.311e-4
4.484e+0	1.311e-4
4.485e+0	1.311e-4
4.486e+0	1.312e-4
4.487e+0	1.311e-4
4.488e+0	1.312e-4
4.489e+0	1.313e-4
4.490e+0	1.314e-4
4.491e+0	1.313e-4
4.492e+0	1.314e-4
4.493e+0	1.315e-4
4.494e+0	1.315e-4
4.495e+0	1.316e-4
4.496e+0	1.315e-4
4.497e+0	1.315e-4
4.498e+0	1.316e-4
4.499e+0	1.316e-4
4.500e+0	1.316e-4
4.501e+0	1.316e-4
4.502e+0	1.315e-4
4.503e+0	1.315e-4
4.504e+0	1.315e-4
4.505e+0	1.316e-4
4.506e+0	1.315e-4
4.507e+0	1.314e-4
4.508e+0	1.314e-4
4.509e+0	1.313e-4
4.510e+0	1.313e-4
4.511e+0	1.312e-4
4.512e+0	1.311e-4
4.513e+0	1.311e-4
4.514e+0	1.311e-4
4.515e+0	1.311e-4
4.516e+0	1.310e-4
4.517e+0	1.308e-4
4.518e+0	1.306e-4
4.519e+0	1.306e-4
4.520e+0	1.304e-4
4.521e+0	1.302e-4
4.522e+0	1.301e-4
4.523e+0	1.300e-4
4.524e+0	1.297e-4
4.525e+0	1.296e-4
4.526e+0	1.293e-4
4.527e+0	1.291e-4
4.528e+0	1.291e-4
4.529e+0	1.287e-4
4.530e+0	1.286e-4
4.531e+0	1.283e-4
4.532e+0	1.282e-4
4.533e+0	1.280e-4
4.534e+0	1.277e-4
4.535e+0	1.275e-4
4.536e+0	1.272e-4
4.537e+0	1.271e-4
4.538e+0	1.268e-4
4.539e+0	1.267e-4
4.540e+0	1.263e-4
4.541e+0	1.262e-4
4.542e+0	1.261e-4
4.543e+0	1.257e-4
4.544e+0	1.257e-4
4.545e+0	1.253e-4
4.546e+0	1.252e-4
4.547e+0	1.251e-4
4.548e+0	1.249e-4
4.549e+0	1.247e-4
4.550e+0	1.247e-4
4.551e+0	1.244e-4
4.552e+0	1.242e-4
4.553e+0	1.242e-4
4.554e+0	1.240e-4
4.555e+0	1.239e-4
4.556e+0	1.238e-4
4.557e+0	1.238e-4
4.558e+0	1.237e-4
4.559e+0	1.237e-4
4.560e+0	1.237e-4
4.561e+0	1.237e-4
4.562e+0	1.236e-4
4.563e+0	1.235e-4
4.564e+0	1.236e-4
4.565e+0	1.235e-4
4.566e+0	1.236e-4
4.567e+0	1.235e-4
4.568e+0	1.237e-4
4.569e+0	1.237e-4
4.570e+0	1.237e-4
4.571e+0	1.237e-4
4.572e+0	1.238e-4
4.573e+0	1.238e-4
4.574e+0	1.239e-4
4.575e+0	1.239e-4
4.576e+0	1.241e-4
4.577e+0	1.242e-4
4.578e+0	1.243e-4
4.579e+0	1.244e-4
4.580e+0	1.246e-4
4.581e+0	1.247e-4
4.582e+0	1.247e-4
4.583e+0	1.249e-4
4.584e+0	1.251e-4
4.585e+0	1.252e-4
4.586e+0	1.253e-4
4.587e+0	1.256e-4
4.588e+0	1.257e-4
4.589e+0	1.257e-4
4.590e+0	1.261e-4
4.591e+0	1.262e-4
4.592e+0	1.262e-4
4.593e+0	1.264e-4
4.594e+0	1.267e-4
4.595e+0	1.267e-4
4.596e+0	1.271e-4
4.597e+0	1.272e-4
4.598e+0	1.273e-4
4.599e+0	1.276e-4
4.600e+0	1.277e-4
4.601e+0	1.280e-4
4.602e+0	1.282e-4
4.603e+0	1.284e-4
4.604e+0	1.286e-4
4.605e+0	1.287e-4
4.606e+0	1.291e-4
4.607e+0	1.292e-4
4.608e+0	1.295e-4
4.609e+0	1.297e-4
4.610e+0	1.300e-4
4.611e+0	1.301e-4
4.612e+0	1.305e-4
4.613e+0	1.306e-4
4.614e+0	1.309e-4
4.615e+0	1.311e-4
4.616e+0	1.313e-4
4.617e+0	1.316e-4
4.618e+0	1.317e-4
4.619e+0	1.321e-4
4.620e+0	1.322e-4
4.621e+0	1.325e-4
4.622e+0	1.326e-4
4.623e+0	1.330e-4
4.624e+0	1.331e-4
4.625e+0	1.335e-4
4.626e+0	1.336e-4
4.627e+0	1.340e-4
4.628e+0	1.341e-4
4.629e+0	1.344e-4
4.630e+0	1.345e-4
4.631e+0	1.349e-4
4.632e+0	1.350e-4
4.633e+0	1.352e-4
4.634e+0	1.354e-4
4.635e+0	1.355e-4
4.636e+0	1.358e-4
4.637e+0	1.360e-4
4.638e+0	1.360e-4
4.639e+0	1.362e-4
4.640e+0	1.365e-4
4.641e+0	1.365e-4
4.642e+0	1.366e-4
4.643e+0	1.367e-4
4.644e+0	1.369e-4
4.645e+0	1.370e-4
4.646e+0	1.370e-4
4.647e+0	1.372e-4
4.648e+0	1.374e-4
4.649e+0	1.374e-4
4.650e+0	1.374e-4
4.651e+0	1.376e-4
4.652e+0	1.377e-4
4.653e+0	1.379e-4
4.654e+0	1.379e-4
4.655e+0	1.379e-4
4.656e+0	1.380e-4
4.657e+0	1.380e-4
4.658e+0	1.383e-4
4.659e+0	1.383e-4
4.660e+0	1.384e-4
4.661e+0	1.386e-4
4.662e+0	1.388e-4
4.663e+0	1.389e-4
4.664e+0	1.388e-4
4.665e+0	1.389e-4
4.666e+0	1.389e-4
4.667e+0	1.389e-4
4.668e+0	1.392e-4
4.669e+0	1.392e-4
4.670e+0	1.393e-4
4.671e+0	1.393e-4
4.672e+0	1.394e-4
4.673e+0	1.394e-4
4.674e+0	1.394e-4
4.675e+0	1.395e-4
4.676e+0	1.394e-4
4.677e+0	1.396e-4
4.678e+0	1.396e-4
4.679e+0	1.397e-4
4.680e+0	1.397e-4
4.681e+0	1.396e-4
4.682e+0	1.396e-4
4.683e+0	1.396e-4
4.684e+0	1.397e-4
4.685e+0	1.396e-4
4.686e+0	1.395e-4
4.687e+0	1.395e-4
4.688e+0	1.394e-4
4.689e+0	1.394e-4
4.690e+0	1.394e-4
4.691e+0	1.394e-4
4.692e+0	1.392e-4
4.693e+0	1.390e-4
4.694e+0	1.389e-4
4.695e+0	1.389e-4
4.696e+0	1.388e-4
4.697e+0	1.385e-4
4.698e+0	1.383e-4
4.699e+0	1.379e-4
4.700e+0	1.379e-4
4.701e+0	1.376e-4
4.702e+0	1.374e-4
4.703e+0	1.373e-4
4.704e+0	1.369e-4
4.705e+0	1.368e-4
4.706e+0	1.365e-4
4.707e+0	1.363e-4
4.708e+0	1.360e-4
4.709e+0	1.357e-4
4.710e+0	1.355e-4
4.711e+0	1.352e-4
4.712e+0	1.350e-4
4.713e+0	1.347e-4
4.714e+0	1.345e-4
4.715e+0	1.341e-4
4.716e+0	1.340e-4
4.717e+0	1.337e-4
4.718e+0	1.335e-4
4.719e+0	1.333e-4
4.720e+0	1.330e-4
4.721e+0	1.328e-4
4.722e+0	1.326e-4
4.723e+0	1.325e-4
4.724e+0	1.322e-4
4.725e+0	1.321e-4
4.726e+0	1.319e-4
4.727e+0	1.317e-4
4.728e+0	1.316e-4
4.729e+0	1.315e-4
4.730e+0	1.312e-4
4.731e+0	1.311e-4
4.732e+0	1.311e-4
4.733e+0	1.308e-4
4.734e+0	1.307e-4
4.735e+0	1.306e-4
4.736e+0	1.306e-4
4.737e+0	1.306e-4
4.738e+0	1.305e-4
4.739e+0	1.304e-4
4.740e+0	1.303e-4
4.741e+0	1.301e-4
4.742e+0	1.301e-4
4.743e+0	1.301e-4
4.744e+0	1.301e-4
4.745e+0	1.301e-4
4.746e+0	1.301e-4
4.747e+0	1.301e-4
4.748e+0	1.301e-4
4.749e+0	1.301e-4
4.750e+0	1.301e-4
4.751e+0	1.301e-4
4.752e+0	1.301e-4
4.753e+0	1.301e-4
4.754e+0	1.302e-4
4.755e+0	1.302e-4
4.756e+0	1.301e-4
4.757e+0	1.302e-4
4.758e+0	1.303e-4
4.759e+0	1.303e-4
4.760e+0	1.304e-4
4.761e+0	1.305e-4
4.762e+0	1.306e-4
4.763e+0	1.306e-4
4.764e+0	1.306e-4
4.765e+0	1.306e-4
4.766e+0	1.306e-4
4.767e+0	1.307e-4
4.768e+0	1.309e-4
4.769e+0	1.310e-4
4.770e+0	1.311e-4
4.771e+0	1.311e-4
4.772e+0	1.312e-4
4.773e+0	1.315e-4
4.774e+0	1.316e-4
4.775e+0	1.316e-4
4.776e+0	1.318e-4
4.777e+0	1.321e-4
4.778e+0	1.321e-4
4.779e+0	1.323e-4
4.780e+0	1.325e-4
4.781e+0	1.326e-4
4.782e+0	1.328e-4
4.783e+0	1.330e-4
4.784e+0	1.331e-4
4.785e+0	1.335e-4
4.786e+0	1.336e-4
4.787e+0	1.339e-4
4.788e+0	1.340e-4
4.789e+0	1.343e-4
4.790e+0	1.344e-4
4.791e+0	1.345e-4
4.792e+0	1.349e-4
4.793e+0	1.350e-4
4.794e+0	1.353e-4
4.795e+0	1.355e-4
4.796e+0	1.359e-4
4.797e+0	1.360e-4
4.798e+0	1.362e-4
4.799e+0	1.365e-4
4.800e+0	1.368e-4
4.801e+0	1.370e-4
4.802e+0	1.374e-4
4.803e+0	1.375e-4
4.804e+0	1.378e-4
4.805e+0	1.380e-4
4.806e+0	1.384e-4
4.807e+0	1.387e-4
4.808e+0	1.389e-4
4.809e+0	1.391e-4
4.810e+0	1.393e-4
4.811e+0	1.394e-4
4.812e+0	1.397e-4
4.813e+0	1.399e-4
4.814e+0	1.399e-4
4.815e+0	1.404e-4
4.816e+0	1.404e-4
4.817e+0	1.404e-4
4.818e+0	1.406e-4
4.819e+0	1.408e-4
4.820e+0	1.408e-4
4.821e+0	1.409e-4
4.822e+0	1.409e-4
4.823e+0	1.412e-4
4.824e+0	1.413e-4
4.825e+0	1.413e-4
4.826e+0	1.414e-4
4.827e+0	1.415e-4
4.828e+0	1.417e-4
4.829e+0	1.418e-4
4.830e+0	1.418e-4
4.831e+0	1.419e-4
4.832e+0	1.418e-4
4.833e+0	1.420e-4
4.834e+0	1.422e-4
4.835e+0	1.423e-4
4.836e+0	1.423e-4
4.837e+0	1.424e-4
4.838e+0	1.423e-4
4.839e+0	1.424e-4
4.840e+0	1.424e-4
4.841e+0	1.425e-4
4.842e+0	1.427e-4
4.843e+0	1.427e-4
4.844e+0	1.427e-4
4.845e+0	1.428e-4
4.846e+0	1.428e-4
4.847e+0	1.428e-4
4.848e+0	1.428e-4
4.849e+0	1.428e-4
4.850e+0	1.428e-4
4.851e+0	1.428e-4
4.852e+0	1.428e-4
4.853e+0	1.428e-4
4.854e+0	1.428e-4
4.855e+0	1.429e-4
4.856e+0	1.428e-4
4.857e+0	1.428e-4
4.858e+0	1.428e-4
4.859e+0	1.428e-4
4.860e+0	1.428e-4
4.861e+0	1.428e-4
4.862e+0	1.428e-4
4.863e+0	1.428e-4
4.864e+0	1.426e-4
4.865e+0	1.424e-4
4.866e+0	1.423e-4
4.867e+0	1.423e-4
4.868e+0	1.421e-4
4.869e+0	1.418e-4
4.870e+0	1.418e-4
4.871e+0	1.416e-4
4.872e+0	1.413e-4
4.873e+0	1.412e-4
4.874e+0	1.409e-4
4.875e+0	1.409e-4
4.876e+0	1.404e-4
4.877e+0	1.403e-4
4.878e+0	1.400e-4
4.879e+0	1.399e-4
4.880e+0	1.396e-4
4.881e+0	1.394e-4
4.882e+0	1.390e-4
4.883e+0	1.389e-4
4.884e+0	1.384e-4
4.885e+0	1.380e-4
4.886e+0	1.379e-4
4.887e+0	1.375e-4
4.888e+0	1.371e-4
4.889e+0	1.369e-4
4.890e+0	1.366e-4
4.891e+0	1.364e-4
4.892e+0	1.360e-4
4.893e+0	1.358e-4
4.894e+0	1.355e-4
4.895e+0	1.353e-4
4.896e+0	1.350e-4
4.897e+0	1.348e-4
4.898e+0	1.344e-4
4.899e+0	1.342e-4
4.900e+0	1.340e-4
4.901e+0	1.338e-4
4.902e+0	1.335e-4
4.903e+0	1.335e-4
4.904e+0	1.332e-4
4.905e+0	1.330e-4
4.906e+0	1.329e-4
4.907e+0	1.326e-4
4.908e+0	1.326e-4
4.909e+0	1.325e-4
4.910e+0	1.321e-4
4.911e+0	1.321e-4
4.912e+0	1.320e-4
4.913e+0	1.320e-4
4.914e+0	1.318e-4
4.915e+0	1.316e-4
4.916e+0	1.315e-4
4.917e+0	1.316e-4
4.918e+0	1.316e-4
4.919e+0	1.316e-4
4.920e+0	1.314e-4
4.921e+0	1.314e-4
4.922e+0	1.312e-4
4.923e+0	1.313e-4
4.924e+0	1.312e-4
4.925e+0	1.311e-4
4.926e+0	1.311e-4
4.927e+0	1.311e-4
4.928e+0	1.312e-4
4.929e+0	1.312e-4
4.930e+0	1.311e-4
4.931e+0	1.312e-4
4.932e+0	1.311e-4
4.933e+0	1.312e-4
4.934e+0	1.313e-4
4.935e+0	1.314e-4
4.936e+0	1.313e-4
4.937e+0	1.313e-4
4.938e+0	1.315e-4
4.939e+0	1.315e-4
4.940e+0	1.315e-4
4.941e+0	1.315e-4
4.942e+0	1.315e-4
4.943e+0	1.316e-4
4.944e+0	1.316e-4
4.945e+0	1.316e-4
4.946e+0	1.317e-4
4.947e+0	1.319e-4
4.948e+0	1.319e-4
4.949e+0	1.321e-4
4.950e+0	1.321e-4
4.951e+0	1.321e-4
4.952e+0	1.321e-4
4.953e+0	1.323e-4
4.954e+0	1.325e-4
4.955e+0	1.326e-4
4.956e+0	1.326e-4
4.957e+0	1.326e-4
4.958e+0	1.330e-4
4.959e+0	1.330e-4
4.960e+0	1.330e-4
4.961e+0	1.332e-4
4.962e+0	1.335e-4
4.963e+0	1.335e-4
4.964e+0	1.337e-4
4.965e+0	1.339e-4
4.966e+0	1.340e-4
4.967e+0	1.342e-4
4.968e+0	1.344e-4
4.969e+0	1.345e-4
4.970e+0	1.347e-4
4.971e+0	1.350e-4
4.972e+0	1.351e-4
4.973e+0	1.354e-4
4.974e+0	1.355e-4
4.975e+0	1.357e-4
4.976e+0	1.359e-4
4.977e+0	1.360e-4
4.978e+0	1.363e-4
4.979e+0	1.365e-4
4.980e+0	1.366e-4
4.981e+0	1.369e-4
4.982e+0	1.369e-4
4.983e+0	1.372e-4
4.984e+0	1.374e-4
4.985e+0	1.376e-4
4.986e+0	1.379e-4
4.987e+0	1.379e-4
4.988e+0	1.381e-4
4.989e+0	1.385e-4
4.990e+0	1.386e-4
4.991e+0	1.389e-4
4.992e+0	1.389e-4
4.993e+0	1.391e-4
4.994e+0	1.394e-4
4.995e+0	1.394e-4
4.996e+0	1.397e-4
4.997e+0	1.399e-4
4.998e+0	1.399e-4
4.999e+0	1.402e-4
5.000e+0	1.403e-4
